 Al Density=2.699, Angle=90.deg
 Photon Energy (eV), Atten Length (microns)
   30.0000  0.410287
   30.3089  0.409589
   30.6210  0.408890
   30.9363  0.408193
   31.2548  0.407497
   31.5766  0.406803
   31.9018  0.406110
   32.2302  0.405417
   32.5621  0.405061
   32.8974  0.405270
   33.2361  0.406504
   33.5783  0.407743
   33.9241  0.408987
   34.2734  0.410233
   34.6263  0.411483
   34.9828  0.412737
   35.3430  0.413995
   35.7069  0.415257
   36.0746  0.416523
   36.4460  0.417792
   36.8213  0.419065
   37.2004  0.420342
   37.5835  0.421622
   37.9705  0.422907
   38.3614  0.424197
   38.7564  0.425490
   39.1555  0.426788
   39.5586  0.428088
   39.9660  0.429393
   40.3775  0.430701
   40.7932  0.432273
   41.2133  0.434327
   41.6376  0.437063
   42.0663  0.439817
   42.4995  0.442588
   42.9371  0.445376
   43.3792  0.448182
   43.8258  0.451006
   44.2771  0.453847
   44.7330  0.456706
   45.1936  0.459583
   45.6589  0.462479
   46.1291  0.465393
   46.6041  0.468325
   47.0839  0.471276
   47.5687  0.475716
   48.0585  0.483418
   48.5534  0.492863
   49.0533  0.503044
   49.5584  0.513434
   50.0687  0.524038
   50.5842  0.534861
   51.1050  0.545909
   51.6312  0.557185
   52.1629  0.568694
   52.7000  0.580440
   53.2426  0.591879
   53.7908  0.602516
   54.3447  0.612514
   54.9043  0.622449
   55.4696  0.632544
   56.0407  0.642803
   56.6178  0.653230
   57.2007  0.663823
   57.7897  0.674590
   58.3847  0.685532
   58.9859  0.696651
   59.5933  0.706547
   60.2069  0.714355
   60.8268  0.721059
   61.4531  0.727567
   62.0859  0.734134
   62.7251  0.740761
   63.3710  0.745602
   64.0235  0.737429
   64.6827  0.728679
   65.3487  0.719509
   66.0216  0.710457
   66.7014  0.701516
   67.3882  0.692686
   68.0821  0.685278
   68.7831  0.678220
   69.4913  0.671369
   70.2068  0.664587
   70.9297  0.657873
   71.6601  0.651227
   72.3979  0.644649
   73.1434  5.598234E-02
   73.8965  5.458914E-02
   74.6574  5.323076E-02
   75.4261  5.190624E-02
   76.2027  5.061469E-02
   76.9874  4.935518E-02
   77.7801  4.812684E-02
   78.5809  4.692920E-02
   79.3901  4.576138E-02
   80.2075  4.462257E-02
   81.0334  4.356976E-02
   81.8677  4.257523E-02
   82.7107  4.160805E-02
   83.5623  4.066288E-02
   84.4228  3.973921E-02
   85.2920  3.883639E-02
   86.1702  3.806188E-02
   87.0575  3.748764E-02
   87.9539  3.718713E-02
   88.8595  3.695582E-02
   89.7745  3.672596E-02
   90.6988  3.649754E-02
   91.6327  3.627053E-02
   92.5762  3.604494E-02
   93.5295  3.582073E-02
   94.4925  3.559795E-02
   95.4655  3.537656E-02
   96.4484  3.515654E-02
   97.4415  3.493792E-02
   98.4448  3.472061E-02
   99.4585  3.450464E-02
   100.483  3.429002E-02
   101.517  3.407669E-02
   102.562  3.386738E-02
   103.619  3.367648E-02
   104.685  3.351424E-02
   105.763  3.337359E-02
   106.852  3.323373E-02
   107.953  3.309437E-02
   109.064  3.295550E-02
   110.187  3.281717E-02
   111.322  3.267945E-02
   112.468  3.254242E-02
   113.626  3.240595E-02
   114.796  3.227007E-02
   115.978  3.213486E-02
   117.172  3.200004E-02
   118.379  3.186570E-02
   119.597  3.173207E-02
   120.829  3.159902E-02
   122.073  3.146653E-02
   123.330  3.133451E-02
   124.600  3.131578E-02
   125.883  3.151655E-02
   127.179  3.179082E-02
   128.488  3.208882E-02
   129.811  3.238965E-02
   131.148  3.269327E-02
   132.498  3.299972E-02
   133.863  3.330906E-02
   135.241  3.362131E-02
   136.634  3.393648E-02
   138.040  3.425460E-02
   139.462  3.457569E-02
   140.898  3.489980E-02
   142.349  3.522696E-02
   143.814  3.555718E-02
   145.295  3.589050E-02
   146.791  3.622692E-02
   148.303  3.656649E-02
   149.830  3.690928E-02
   151.372  3.730764E-02
   152.931  3.775457E-02
   154.506  3.820972E-02
   156.096  3.867042E-02
   157.704  3.913669E-02
   159.328  3.960861E-02
   160.968  4.008621E-02
   162.626  4.056955E-02
   164.300  4.105870E-02
   165.992  4.155377E-02
   167.701  4.205481E-02
   169.428  4.256190E-02
   171.172  4.307507E-02
   172.935  4.359442E-02
   174.715  4.412005E-02
   176.514  4.465207E-02
   178.332  4.532544E-02
   180.168  4.613763E-02
   182.023  4.720877E-02
   183.897  4.830494E-02
   185.791  4.942660E-02
   187.704  5.057407E-02
   189.637  5.174836E-02
   191.589  5.295001E-02
   193.562  5.417924E-02
   195.555  5.543710E-02
   197.568  5.672434E-02
   199.603  5.804155E-02
   201.658  5.939595E-02
   203.734  6.079425E-02
   205.832  6.222533E-02
   207.952  6.369016E-02
   210.093  6.518983E-02
   212.256  6.672450E-02
   214.441  6.829516E-02
   216.650  6.990306E-02
   218.880  7.154878E-02
   221.134  7.323328E-02
   223.411  7.488891E-02
   225.711  7.650642E-02
   228.035  7.804268E-02
   230.383  7.960979E-02
   232.756  8.120837E-02
   235.152  8.283907E-02
   237.573  8.450250E-02
   240.020  8.619933E-02
   242.491  8.793011E-02
   244.988  8.969571E-02
   247.510  9.149676E-02
   250.059  9.333424E-02
   252.634  9.520852E-02
   255.235  9.712020E-02
   257.863  9.907044E-02
   260.518  0.101060
   263.201  0.103089
   265.911  0.105245
   268.649  0.107561
   271.415  0.110374
   274.209  0.113260
   277.033  0.116222
   279.885  0.119262
   282.767  0.122380
   285.679  0.125581
   288.620  0.128865
   291.592  0.132235
   294.594  0.135694
   297.628  0.139242
   300.692  0.142884
   303.788  0.146621
   306.916  0.150455
   310.077  0.154389
   313.269  0.158427
   316.495  0.162570
   319.754  0.166822
   323.046  0.171185
   326.372  0.175662
   329.733  0.180255
   333.128  0.184969
   336.558  0.189807
   340.024  0.194771
   343.525  0.199865
   347.062  0.205091
   350.635  0.210455
   354.246  0.215959
   357.893  0.221607
   361.578  0.226974
   365.301  0.232399
   369.063  0.237866
   372.863  0.243461
   376.702  0.249188
   380.581  0.255050
   384.499  0.261049
   388.459  0.267191
   392.458  0.273475
   396.499  0.279908
   400.582  0.286492
   404.707  0.293231
   408.874  0.300129
   413.084  0.307189
   417.337  0.314415
   421.634  0.321811
   425.976  0.329381
   430.362  0.337129
   434.793  0.345147
   439.270  0.353788
   443.793  0.362789
   448.362  0.372114
   452.979  0.381665
   457.643  0.391462
   462.355  0.401512
   467.116  0.411824
   471.926  0.422399
   476.785  0.433244
   481.694  0.444371
   486.654  0.455789
   491.665  0.467518
   496.727  0.479620
   501.842  0.492091
   507.009  0.505072
   512.230  0.518439
   517.504  0.532203
   522.832  0.546302
   528.216  0.560749
   533.655  0.575540
   539.150  0.590696
   544.701  0.606244
   550.310  0.622198
   555.976  0.638800
   561.701  0.655977
   567.484  0.673794
   573.327  0.692219
   579.231  0.711254
   585.195  0.730861
   591.220  0.751027
   597.308  0.771770
   603.458  0.793085
   609.672  0.814987
   615.949  0.837495
   622.291  0.860654
   628.699  0.884531
   635.172  0.909475
   641.712  0.935547
   648.320  0.962689
   654.995  0.991128
   661.740  1.02040
   668.553  1.05053
   675.437  1.07982
   682.392  1.10920
   689.418  1.13828
   696.517  1.16781
   703.689  1.19824
   710.934  1.23067
   718.254  1.26462
   725.650  1.29991
   733.122  1.33619
   740.670  1.37348
   748.297  1.41182
   756.002  1.45123
   763.786  1.49178
   771.650  1.53353
   779.596  1.57667
   787.623  1.62115
   795.733  1.66708
   803.926  1.71432
   812.204  1.76289
   820.567  1.81287
   829.016  1.86426
   837.552  1.91710
   846.176  1.97146
   854.888  2.02739
   863.691  2.08496
   872.584  2.14424
   881.569  2.20521
   890.646  2.26791
   899.816  2.33239
   909.081  2.39870
   918.442  2.46688
   927.899  2.53714
   937.453  2.60951
   947.106  2.68393
   956.858  2.76046
   966.710  2.83917
   976.664  2.92019
   986.720  3.00346
   996.880  3.08892
   1007.14  3.17661
   1017.51  3.26630
   1027.99  3.35628
   1038.58  3.44980
   1049.27  3.54673
   1060.07  3.64844
   1070.99  3.75310
   1082.02  3.86079
   1093.16  3.97156
   1104.41  4.08552
   1115.79  4.20276
   1127.27  4.32333
   1138.88  4.44736
   1150.61  4.57493
   1162.46  4.70619
   1174.42  4.84123
   1186.52  4.98014
   1198.73  5.12303
   1211.08  5.27001
   1223.55  5.42123
   1236.15  5.57640
   1248.87  5.73533
   1261.73  5.89782
   1274.72  6.06431
   1287.85  6.23435
   1301.11  6.40918
   1314.51  6.58894
   1328.04  6.77372
   1341.72  6.96369
   1355.53  7.15901
   1369.49  7.35978
   1383.59  7.56616
   1397.84  7.77831
   1412.23  7.99637
   1426.77  8.22057
   1441.46  8.45111
   1456.30  8.68955
   1471.30  8.93578
   1486.45  9.19197
   1501.75  9.46380
   1517.22  9.75017
   1532.84  10.0474
   1548.62  10.3536
   1564.57  0.895964
   1580.68  0.917920
   1596.95  0.940415
   1613.40  0.963458
   1630.01  0.987061
   1646.79  1.01124
   1663.75  1.03602
   1680.88  1.06140
   1698.19  1.08741
   1715.67  1.11405
   1733.34  1.14176
   1751.18  1.17064
   1769.22  1.20054
   1787.43  1.23133
   1805.84  1.26307
   1824.43  1.29563
   1843.22  1.32903
   1862.20  1.36329
   1881.37  1.39843
   1900.74  1.43449
   1920.31  1.47146
   1940.09  1.50939
   1960.06  1.54829
   1980.24  1.58820
   2000.63  1.62889
   2021.23  1.67018
   2042.05  1.71389
   2063.07  1.75914
   2084.31  1.80580
   2105.78  1.85383
   2127.46  1.90322
   2149.36  1.95405
   2171.49  2.00640
   2193.85  2.06029
   2216.44  2.11575
   2239.26  2.17281
   2262.32  2.23155
   2285.62  2.29203
   2309.15  2.35424
   2332.93  2.41828
   2356.95  2.48425
   2381.22  2.55213
   2405.73  2.62200
   2430.51  2.69391
   2455.53  2.76787
   2480.81  2.84420
   2506.36  2.92270
   2532.17  3.00346
   2558.24  3.08666
   2584.58  3.17225
   2611.19  3.26036
   2638.08  3.35114
   2665.24  3.44454
   2692.68  3.54068
   2720.41  3.63974
   2748.42  3.74173
   2776.72  3.84675
   2805.31  3.95484
   2834.20  4.06609
   2863.38  4.18074
   2892.86  4.29873
   2922.65  4.42023
   2952.74  4.54540
   2983.15  4.67422
   3013.86  4.80685
   3044.89  4.94347
   3076.25  5.08413
   3107.92  5.22905
   3139.92  5.37823
   3172.25  5.53180
   3204.92  5.69005
   3237.92  5.85296
   3271.26  6.02070
   3304.94  6.19360
   3338.97  6.37160
   3373.35  6.55489
   3408.08  6.74368
   3443.17  6.93803
   3478.63  7.13828
   3514.45  7.34455
   3550.63  7.55699
   3587.19  7.77584
   3624.13  8.00121
   3661.44  8.23332
   3699.14  8.47249
   3737.23  8.71879
   3775.71  8.97247
   3814.59  9.23380
   3853.87  9.50290
   3893.55  9.78023
   3933.64  10.0658
   3974.14  10.3599
   4015.06  10.6632
   4056.40  10.9755
   4098.17  11.2971
   4140.37  11.6286
   4183.00  11.9699
   4226.07  12.3216
   4269.59  12.6839
   4313.55  13.0571
   4357.96  13.4417
   4402.83  13.8380
   4448.17  14.2460
   4493.97  14.6666
   4540.24  15.1000
   4586.99  15.5466
   4634.22  16.0066
   4681.94  16.4804
   4730.15  16.9686
   4778.85  17.4719
   4828.06  17.9903
   4877.77  18.5242
   4928.00  19.0747
   4978.74  19.6419
   5030.00  20.2263
   5036.95  20.3063
   5043.91  20.3867
   5050.87  20.4674
   5057.85  20.5484
   5064.83  20.6299
   5071.83  20.7116
   5078.84  20.7936
   5085.85  20.8760
   5092.88  20.9587
   5099.91  21.0417
   5106.96  21.1251
   5114.01  21.2088
   5121.07  21.2928
   5128.15  21.3771
   5135.23  21.4618
   5142.32  21.5470
   5149.43  21.6325
   5156.54  21.7184
   5163.66  21.8045
   5170.79  21.8911
   5177.94  21.9780
   5185.09  22.0652
   5192.25  22.1528
   5199.42  22.2407
   5206.60  22.3289
   5213.80  22.4176
   5221.00  22.5065
   5228.21  22.5959
   5235.43  22.6856
   5242.66  22.7756
   5249.90  22.8661
   5257.16  22.9569
   5264.42  23.0480
   5271.69  23.1395
   5278.97  23.2314
   5286.26  23.3236
   5293.56  23.4162
   5300.88  23.5091
   5308.20  23.6025
   5315.53  23.6963
   5322.87  23.7905
   5330.23  23.8850
   5337.59  23.9799
   5344.96  24.0752
   5352.34  24.1709
   5359.74  24.2669
   5367.14  24.3634
   5374.55  24.4601
   5381.98  24.5573
   5389.41  24.6549
   5396.85  24.7530
   5404.31  24.8514
   5411.77  24.9502
   5419.25  25.0494
   5426.73  25.1490
   5434.23  25.2491
   5441.74  25.3495
   5449.25  25.4503
   5456.78  25.5515
   5464.32  25.6531
   5471.87  25.7551
   5479.42  25.8576
   5486.99  25.9606
   5494.57  26.0641
   5502.16  26.1679
   5509.76  26.2722
   5517.37  26.3769
   5524.99  26.4820
   5532.62  26.5875
   5540.27  26.6934
   5547.92  26.7998
   5555.58  26.9066
   5563.26  27.0138
   5570.94  27.1214
   5578.63  27.2294
   5586.34  27.3379
   5594.06  27.4468
   5601.78  27.5561
   5609.52  27.6659
   5617.27  27.7761
   5625.03  27.8867
   5632.80  27.9979
   5640.58  28.1094
   5648.37  28.2213
   5656.17  28.3338
   5663.98  28.4467
   5671.81  28.5601
   5679.64  28.6741
   5687.49  28.7884
   5695.34  28.9031
   5703.21  29.0184
   5711.09  29.1341
   5718.98  29.2503
   5726.88  29.3669
   5734.79  29.4839
   5742.71  29.6015
   5750.64  29.7196
   5758.58  29.8382
   5766.54  29.9573
   5774.50  30.0768
   5782.48  30.1969
   5790.47  30.3174
   5798.46  30.4384
   5806.47  30.5599
   5814.49  30.6818
   5822.52  30.8042
   5830.57  30.9272
   5838.62  31.0506
   5846.69  31.1747
   5854.76  31.2992
   5862.85  31.4242
   5870.95  31.5497
   5879.06  31.6757
   5887.18  31.8022
   5895.31  31.9293
   5903.45  32.0568
   5911.61  32.1849
   5919.77  32.3134
   5927.95  32.4425
   5936.14  32.5721
   5944.34  32.7025
   5952.55  32.8334
   5960.77  32.9648
   5969.00  33.0967
   5977.25  33.2292
   5985.50  33.3622
   5993.77  33.4957
   6002.05  33.6298
   6010.34  33.7644
   6018.64  33.8995
   6026.96  34.0352
   6035.28  34.1714
   6043.62  34.3080
   6051.97  34.4452
   6060.32  34.5829
   6068.70  34.7212
   6077.08  34.8600
   6085.47  34.9993
   6093.88  35.1393
   6102.29  35.2798
   6110.72  35.4208
   6119.16  35.5624
   6127.62  35.7046
   6136.08  35.8477
   6144.56  35.9914
   6153.04  36.1356
   6161.54  36.2804
   6170.05  36.4258
   6178.58  36.5717
   6187.11  36.7183
   6195.66  36.8654
   6204.21  37.0132
   6212.78  37.1615
   6221.37  37.3104
   6229.96  37.4599
   6238.56  37.6101
   6247.18  37.7608
   6255.81  37.9123
   6264.45  38.0642
   6273.10  38.2169
   6281.77  38.3701
   6290.45  38.5238
   6299.14  38.6783
   6307.84  38.8334
   6316.55  38.9890
   6325.27  39.1453
   6334.01  39.3024
   6342.76  39.4601
   6351.52  39.6184
   6360.29  39.7773
   6369.08  39.9370
   6377.88  40.0972
   6386.69  40.2580
   6395.51  40.4196
   6404.34  40.5817
   6413.19  40.7445
   6422.05  40.9080
   6430.92  41.0722
   6439.80  41.2371
   6448.70  41.4026
   6457.60  41.5688
   6466.52  41.7358
   6475.45  41.9033
   6484.40  42.0715
   6493.36  42.2405
   6502.32  42.4100
   6511.31  42.5803
   6520.30  42.7512
   6529.31  42.9228
   6538.33  43.0953
   6547.36  43.2684
   6556.40  43.4423
   6565.46  43.6169
   6574.52  43.7922
   6583.61  43.9682
   6592.70  44.1448
   6601.81  44.3222
   6610.92  44.5003
   6620.06  44.6791
   6629.20  44.8586
   6638.36  45.0389
   6647.53  45.2200
   6656.71  45.4018
   6665.90  45.5843
   6675.11  45.7675
   6684.33  45.9515
   6693.56  46.1362
   6702.81  46.3217
   6712.07  46.5080
   6721.34  46.6949
   6730.62  46.8826
   6739.92  47.0711
   6749.23  47.2603
   6758.55  47.4506
   6767.89  47.6415
   6777.24  47.8332
   6786.60  48.0258
   6795.97  48.2190
   6805.36  48.4130
   6814.76  48.6079
   6824.17  48.8035
   6833.60  49.0000
   6843.04  49.1971
   6852.49  49.3951
   6861.95  49.5940
   6871.43  49.7936
   6880.92  49.9941
   6890.43  50.1954
   6899.95  50.3975
   6909.48  50.6005
   6919.02  50.8041
   6928.58  51.0087
   6938.15  51.2141
   6947.73  51.4202
   6957.33  51.6272
   6966.94  51.8352
   6976.56  52.0440
   6986.20  52.2537
   6995.85  52.4642
   7005.51  52.6756
   7015.19  52.8879
   7024.88  53.1010
   7034.58  53.3149
   7044.30  53.5298
   7054.03  53.7454
   7063.77  53.9619
   7073.53  54.1794
   7083.30  54.3977
   7093.08  54.6171
   7102.88  54.8373
   7112.69  55.0584
   7122.52  55.2805
   7132.35  55.5033
   7142.21  55.7271
   7152.07  55.9519
   7161.95  56.1774
   7171.84  56.4040
   7181.75  56.6314
   7191.67  56.8597
   7201.60  57.0892
   7211.55  57.3195
   7221.51  57.5507
   7231.49  57.7830
   7241.47  58.0161
   7251.48  58.2503
   7261.49  58.4853
   7271.52  58.7212
   7281.57  58.9582
   7291.62  59.1961
   7301.70  59.4349
   7311.78  59.6748
   7321.88  59.9157
   7332.00  60.1577
   7342.12  60.4006
   7352.26  60.6444
   7362.42  60.8894
   7372.59  61.1352
   7382.77  61.3820
   7392.97  61.6299
   7403.18  61.8787
   7413.41  62.1285
   7423.65  62.3794
   7433.90  62.6313
   7444.17  62.8844
   7454.45  63.1385
   7464.75  63.3936
   7475.06  63.6498
   7485.39  63.9069
   7495.72  64.1650
   7506.08  64.4244
   7516.45  64.6846
   7526.83  64.9461
   7537.23  65.2084
   7547.64  65.4718
   7558.06  65.7366
   7568.50  66.0024
   7578.96  66.2692
   7589.42  66.5372
   7599.91  66.8062
   7610.40  67.0764
   7620.92  67.3475
   7631.44  67.6198
   7641.98  67.8933
   7652.54  68.1677
   7663.11  68.4433
   7673.70  68.7202
   7684.29  68.9981
   7694.91  69.2773
   7705.54  69.5575
   7716.18  69.8389
   7726.84  70.1215
   7737.51  70.4051
   7748.20  70.6898
   7758.90  70.9759
   7769.62  71.2629
   7780.35  71.5512
   7791.10  71.8407
   7801.86  72.1314
   7812.64  72.4236
   7823.43  72.7168
   7834.23  73.0111
   7845.06  73.3068
   7855.89  73.6036
   7866.74  73.9017
   7877.61  74.2008
   7888.49  74.5012
   7899.39  74.8029
   7910.30  75.1057
   7921.22  75.4098
   7932.17  75.7152
   7943.12  76.0218
   7954.09  76.3296
   7965.08  76.6388
   7976.08  76.9491
   7987.10  77.2608
   7998.13  77.5736
   8009.18  77.8877
   8020.24  78.2032
   8031.32  78.5199
   8042.41  78.8378
   8053.52  79.1572
   8064.65  79.4780
   8075.79  79.8002
   8086.94  80.1236
   8098.11  80.4482
   8109.30  80.7744
   8120.50  81.1017
   8131.71  81.4303
   8142.95  81.7604
   8154.19  82.0917
   8165.46  82.4245
   8176.74  82.7584
   8188.03  83.0940
   8199.34  83.4312
   8210.67  83.7696
   8222.01  84.1094
   8233.36  84.4507
   8244.74  84.7932
   8256.13  85.1372
   8267.53  85.4825
   8278.95  85.8292
   8290.38  86.1774
   8301.83  86.5269
   8313.30  86.8778
   8324.79  87.2305
   8336.28  87.5843
   8347.80  87.9396
   8359.33  88.2965
   8370.88  88.6547
   8382.44  89.0145
   8394.02  89.3756
   8405.61  89.7381
   8417.22  90.1023
   8428.85  90.4678
   8440.49  90.8347
   8452.15  91.2036
   8463.82  91.5740
   8475.51  91.9461
   8487.22  92.3196
   8498.95  92.6945
   8510.68  93.0711
   8522.44  93.4491
   8534.21  93.8286
   8546.00  94.2099
   8557.80  94.5925
   8569.63  94.9768
   8581.46  95.3625
   8593.32  95.7498
   8605.19  96.1389
   8617.07  96.5294
   8628.97  96.9215
   8640.89  97.3153
   8652.83  97.7106
   8664.78  98.1076
   8676.75  98.5061
   8688.73  98.9062
   8700.74  99.3080
   8712.75  99.7114
   8724.79  100.116
   8736.84  100.523
   8748.91  100.932
   8760.99  101.342
   8773.09  101.754
   8785.21  102.168
   8797.35  102.583
   8809.50  103.000
   8821.67  103.418
   8833.85  103.839
   8846.05  104.260
   8858.27  104.684
   8870.51  105.110
   8882.76  105.537
   8895.03  105.967
   8907.32  106.398
   8919.62  106.831
   8931.94  107.265
   8944.28  107.701
   8956.63  108.139
   8969.00  108.579
   8981.39  109.021
   8993.80  109.465
   9006.22  109.910
   9018.66  110.357
   9031.12  110.806
   9043.59  111.257
   9056.08  111.710
   9068.59  112.165
   9081.12  112.621
   9093.66  113.080
   9106.22  113.540
   9118.80  114.002
   9131.40  114.466
   9144.01  114.932
   9156.64  115.400
   9169.29  115.870
   9181.95  116.342
   9194.64  116.815
   9207.34  117.291
   9220.05  117.768
   9232.79  118.248
   9245.54  118.729
   9258.31  119.213
   9271.10  119.698
   9283.91  120.185
   9296.73  120.674
   9309.57  121.166
   9322.43  121.660
   9335.31  122.156
   9348.20  122.653
   9361.12  123.153
   9374.05  123.655
   9386.99  124.158
   9399.96  124.664
   9412.94  125.172
   9425.95  125.682
   9438.97  126.194
   9452.00  126.708
   9465.06  127.224
   9478.13  127.743
   9491.23  128.263
   9504.34  128.785
   9517.46  129.310
   9530.61  129.837
   9543.77  130.366
   9556.96  130.897
   9570.16  131.430
   9583.38  131.965
   9596.61  132.503
   9609.87  133.043
   9623.14  133.586
   9636.44  134.130
   9649.75  134.677
   9663.08  135.227
   9676.42  135.779
   9689.79  136.333
   9703.17  136.889
   9716.58  137.447
   9730.00  138.008
   9743.44  138.570
   9756.89  139.135
   9770.37  139.703
   9783.87  140.272
   9797.38  140.844
   9810.91  141.419
   9824.47  141.995
   9838.04  142.574
   9851.63  143.155
   9865.23  143.739
   9878.86  144.325
   9892.50  144.913
   9906.17  145.504
   9919.85  146.097
   9933.55  146.693
   9947.28  147.292
   9961.02  147.893
   9974.77  148.497
   9988.55  149.103
   10002.3  149.712
   10016.2  150.323
   10030.0  150.937
   10038.1  151.297
   10046.2  151.659
   10054.4  152.022
   10062.5  152.385
   10070.7  152.749
   10078.8  153.114
   10087.0  153.480
   10095.1  153.848
   10103.3  154.215
   10111.5  154.584
   10119.6  154.954
   10127.8  155.325
   10136.0  155.696
   10144.2  156.068
   10152.4  156.441
   10160.7  156.816
   10168.9  157.191
   10177.1  157.566
   10185.3  157.943
   10193.6  158.321
   10201.8  158.700
   10210.1  159.079
   10218.4  159.459
   10226.6  159.840
   10234.9  160.223
   10243.2  160.606
   10251.5  160.990
   10259.8  161.375
   10268.1  161.762
   10276.4  162.149
   10284.7  162.537
   10293.0  162.926
   10301.4  163.316
   10309.7  163.706
   10318.0  164.098
   10326.4  164.490
   10334.7  164.884
   10343.1  165.279
   10351.5  165.674
   10359.9  166.070
   10368.2  166.468
   10376.6  166.866
   10385.0  167.265
   10393.4  167.665
   10401.8  168.066
   10410.3  168.469
   10418.7  168.872
   10427.1  169.276
   10435.6  169.681
   10444.0  170.087
   10452.4  170.494
   10460.9  170.902
   10469.4  171.311
   10477.8  171.721
   10486.3  172.132
   10494.8  172.544
   10503.3  172.957
   10511.8  173.371
   10520.3  173.786
   10528.8  174.202
   10537.3  174.618
   10545.9  175.036
   10554.4  175.455
   10562.9  175.875
   10571.5  176.296
   10580.1  176.718
   10588.6  177.141
   10597.2  177.565
   10605.8  177.990
   10614.3  178.417
   10622.9  178.844
   10631.5  179.272
   10640.1  179.702
   10648.7  180.132
   10657.4  180.563
   10666.0  180.995
   10674.6  181.429
   10683.3  181.863
   10691.9  182.299
   10700.6  182.735
   10709.2  183.173
   10717.9  183.611
   10726.6  184.051
   10735.2  184.492
   10743.9  184.933
   10752.6  185.376
   10761.3  185.821
   10770.0  186.266
   10778.7  186.712
   10787.5  187.159
   10796.2  187.608
   10804.9  188.057
   10813.7  188.507
   10822.4  188.959
   10831.2  189.412
   10840.0  189.865
   10848.7  190.320
   10857.5  190.776
   10866.3  191.233
   10875.1  191.691
   10883.9  192.150
   10892.7  192.610
   10901.5  193.072
   10910.3  193.534
   10919.2  193.998
   10928.0  194.463
   10936.8  194.928
   10945.7  195.396
   10954.5  195.864
   10963.4  196.334
   10972.3  196.804
   10981.2  197.276
   10990.0  197.749
   10998.9  198.222
   11007.8  198.697
   11016.8  199.174
   11025.7  199.651
   11034.6  200.129
   11043.5  200.609
   11052.5  201.090
   11061.4  201.572
   11070.4  202.054
   11079.3  202.538
   11088.3  203.024
   11097.3  203.510
   11106.2  203.998
   11115.2  204.487
   11124.2  204.978
   11133.2  205.469
   11142.2  205.962
   11151.2  206.456
   11160.3  206.951
   11169.3  207.447
   11178.3  207.945
   11187.4  208.443
   11196.4  208.943
   11205.5  209.443
   11214.6  209.946
   11223.6  210.449
   11232.7  210.954
   11241.8  211.459
   11250.9  211.966
   11260.0  212.474
   11269.1  212.984
   11278.3  213.494
   11287.4  214.006
   11296.5  214.520
   11305.7  215.035
   11314.8  215.551
   11324.0  216.068
   11333.1  216.586
   11342.3  217.106
   11351.5  217.626
   11360.7  218.148
   11369.9  218.672
   11379.1  219.196
   11388.3  219.722
   11397.5  220.249
   11406.7  220.777
   11415.9  221.307
   11425.2  221.838
   11434.4  222.370
   11443.7  222.903
   11452.9  223.438
   11462.2  223.974
   11471.5  224.511
   11480.8  225.050
   11490.1  225.590
   11499.4  226.131
   11508.7  226.673
   11518.0  227.217
   11527.3  227.762
   11536.6  228.309
   11546.0  228.856
   11555.3  229.405
   11564.7  229.955
   11574.0  230.507
   11583.4  231.060
   11592.8  231.614
   11602.1  232.170
   11611.5  232.727
   11620.9  233.285
   11630.3  233.844
   11639.7  234.405
   11649.2  234.967
   11658.6  235.532
   11668.0  236.097
   11677.5  236.664
   11686.9  237.232
   11696.4  237.801
   11705.8  238.372
   11715.3  238.944
   11724.8  239.517
   11734.3  240.092
   11743.8  240.668
   11753.3  241.246
   11762.8  241.825
   11772.3  242.405
   11781.8  242.987
   11791.4  243.570
   11800.9  244.154
   11810.5  244.740
   11820.0  245.327
   11829.6  245.916
   11839.2  246.506
   11848.7  247.098
   11858.3  247.692
   11867.9  248.287
   11877.5  248.883
   11887.1  249.480
   11896.8  250.079
   11906.4  250.680
   11916.0  251.282
   11925.7  251.885
   11935.3  252.490
   11945.0  253.096
   11954.6  253.704
   11964.3  254.313
   11974.0  254.924
   11983.7  255.536
   11993.4  256.149
   12003.1  256.764
   12012.8  257.380
   12022.5  257.998
   12032.3  258.618
   12042.0  259.239
   12051.7  259.861
   12061.5  260.485
   12071.3  261.111
   12081.0  261.738
   12090.8  262.367
   12100.6  262.996
   12110.4  263.628
   12120.2  264.261
   12130.0  264.895
   12139.8  265.531
   12149.6  266.169
   12159.5  266.808
   12169.3  267.448
   12179.1  268.090
   12189.0  268.734
   12198.9  269.379
   12208.7  270.026
   12218.6  270.674
   12228.5  271.325
   12238.4  271.977
   12248.3  272.631
   12258.2  273.286
   12268.1  273.942
   12278.1  274.600
   12288.0  275.261
   12297.9  275.922
   12307.9  276.585
   12317.9  277.249
   12327.8  277.916
   12337.8  278.583
   12347.8  279.253
   12357.8  279.923
   12367.8  280.596
   12377.8  281.270
   12387.8  281.946
   12397.8  282.623
   12407.9  283.302
   12417.9  283.983
   12428.0  284.665
   12438.0  285.349
   12448.1  286.034
   12458.2  286.722
   12468.2  287.411
   12478.3  288.101
   12488.4  288.793
   12498.5  289.487
   12508.6  290.183
   12518.8  290.880
   12528.9  291.578
   12539.0  292.279
   12549.2  292.981
   12559.3  293.685
   12569.5  294.390
   12579.7  295.097
   12589.9  295.806
   12600.0  296.517
   12610.2  297.229
   12620.4  297.943
   12630.7  298.659
   12640.9  299.377
   12651.1  300.097
   12661.3  300.818
   12671.6  301.541
   12681.8  302.266
   12692.1  302.993
   12702.4  303.721
   12712.7  304.451
   12723.0  305.183
   12733.2  305.916
   12743.6  306.651
   12753.9  307.388
   12764.2  308.126
   12774.5  308.867
   12784.9  309.609
   12795.2  310.353
   12805.6  311.099
   12815.9  311.847
   12826.3  312.596
   12836.7  313.347
   12847.1  314.100
   12857.5  314.856
   12867.9  315.613
   12878.3  316.371
   12888.7  317.131
   12899.1  317.893
   12909.6  318.658
   12920.0  319.424
   12930.5  320.191
   12940.9  320.960
   12951.4  321.732
   12961.9  322.505
   12972.4  323.280
   12982.9  324.056
   12993.4  324.835
   13003.9  325.616
   13014.4  326.398
   13024.9  327.182
   13035.5  327.969
   13046.0  328.758
   13056.6  329.549
   13067.2  330.342
   13077.7  331.136
   13088.3  331.933
   13098.9  332.731
   13109.5  333.531
   13120.1  334.333
   13130.7  335.137
   13141.4  335.943
   13152.0  336.751
   13162.6  337.561
   13173.3  338.372
   13184.0  339.186
   13194.6  340.002
   13205.3  340.819
   13216.0  341.638
   13226.7  342.460
   13237.4  343.283
   13248.1  344.109
   13258.8  344.936
   13269.6  345.766
   13280.3  346.598
   13291.0  347.431
   13301.8  348.267
   13312.6  349.104
   13323.3  349.944
   13334.1  350.785
   13344.9  351.629
   13355.7  352.474
   13366.5  353.322
   13377.3  354.171
   13388.2  355.023
   13399.0  355.876
   13409.8  356.731
   13420.7  357.589
   13431.5  358.449
   13442.4  359.310
   13453.3  360.174
   13464.2  361.041
   13475.1  361.910
   13486.0  362.780
   13496.9  363.653
   13507.8  364.529
   13518.8  365.405
   13529.7  366.284
   13540.6  367.165
   13551.6  368.049
   13562.6  368.934
   13573.5  369.821
   13584.5  370.711
   13595.5  371.602
   13606.5  372.496
   13617.5  373.392
   13628.6  374.290
   13639.6  375.190
   13650.6  376.092
   13661.7  376.997
   13672.7  377.903
   13683.8  378.812
   13694.9  379.724
   13705.9  380.637
   13717.0  381.553
   13728.1  382.470
   13739.2  383.390
   13750.4  384.313
   13761.5  385.237
   13772.6  386.163
   13783.8  387.092
   13794.9  388.023
   13806.1  388.956
   13817.3  389.891
   13828.4  390.829
   13839.6  391.768
   13850.8  392.711
   13862.0  393.655
   13873.3  394.601
   13884.5  395.550
   13895.7  396.502
   13907.0  397.456
   13918.2  398.412
   13929.5  399.371
   13940.8  400.332
   13952.0  401.296
   13963.3  402.261
   13974.6  403.229
   13985.9  404.199
   13997.3  405.172
   14008.6  406.146
   14019.9  407.123
   14031.3  408.102
   14042.6  409.085
   14054.0  410.068
   14065.4  411.054
   14076.7  412.043
   14088.1  413.035
   14099.5  414.028
   14111.0  415.023
   14122.4  416.022
   14133.8  417.023
   14145.2  418.027
   14156.7  419.032
   14168.1  420.040
   14179.6  421.051
   14191.1  422.064
   14202.6  423.079
   14214.1  424.097
   14225.6  425.117
   14237.1  426.140
   14248.6  427.165
   14260.1  428.192
   14271.7  429.222
   14283.2  430.254
   14294.8  431.289
   14306.3  432.326
   14317.9  433.366
   14329.5  434.408
   14341.1  435.453
   14352.7  436.501
   14364.3  437.551
   14376.0  438.604
   14387.6  439.660
   14399.2  440.719
   14410.9  441.779
   14422.5  442.842
   14434.2  443.908
   14445.9  444.976
   14457.6  446.047
   14469.3  447.120
   14481.0  448.196
   14492.7  449.274
   14504.4  450.355
   14516.2  451.438
   14527.9  452.524
   14539.7  453.612
   14551.5  454.704
   14563.2  455.797
   14575.0  456.894
   14586.8  457.993
   14598.6  459.095
   14610.4  460.200
   14622.3  461.307
   14634.1  462.416
   14645.9  463.529
   14657.8  464.644
   14669.6  465.761
   14681.5  466.881
   14693.4  468.005
   14705.3  469.130
   14717.2  470.258
   14729.1  471.389
   14741.0  472.522
   14752.9  473.659
   14764.9  474.797
   14776.8  475.939
   14788.8  477.083
   14800.8  478.230
   14812.7  479.380
   14824.7  480.534
   14836.7  481.690
   14848.7  482.849
   14860.7  484.012
   14872.8  485.176
   14884.8  486.344
   14896.9  487.513
   14908.9  488.687
   14921.0  489.863
   14933.0  491.041
   14945.1  492.222
   14957.2  493.407
   14969.3  494.593
   14981.4  495.782
   14993.6  496.975
   15005.7  498.170
   15017.8  499.370
   15030.0  500.572
   15038.6  501.427
   15047.3  502.283
   15055.9  503.142
   15064.6  504.002
   15073.2  504.864
   15081.9  505.728
   15090.6  506.592
   15099.2  507.458
   15107.9  508.325
   15116.6  509.195
   15125.3  510.065
   15134.0  510.936
   15142.6  511.809
   15151.3  512.685
   15160.0  513.561
   15168.8  514.438
   15177.5  515.317
   15186.2  516.198
   15194.9  517.080
   15203.6  517.963
   15212.4  518.849
   15221.1  519.735
   15229.9  520.623
   15238.6  521.512
   15247.4  522.404
   15256.1  523.296
   15264.9  524.190
   15273.7  525.085
   15282.4  525.983
   15291.2  526.881
   15300.0  527.782
   15308.8  528.684
   15317.6  529.588
   15326.4  530.494
   15335.2  531.400
   15344.0  532.308
   15352.8  533.219
   15361.6  534.130
   15370.5  535.043
   15379.3  535.959
   15388.1  536.874
   15397.0  537.792
   15405.8  538.711
   15414.7  539.632
   15423.5  540.554
   15432.4  541.477
   15441.3  542.403
   15450.1  543.330
   15459.0  544.258
   15467.9  545.188
   15476.8  546.120
   15485.7  547.053
   15494.6  547.987
   15503.5  548.923
   15512.4  549.862
   15521.3  550.801
   15530.2  551.741
   15539.1  552.684
   15548.1  553.629
   15557.0  554.576
   15565.9  555.524
   15574.9  556.473
   15583.8  557.425
   15592.8  558.378
   15601.7  559.332
   15610.7  560.288
   15619.7  561.247
   15628.6  562.206
   15637.6  563.167
   15646.6  564.130
   15655.6  565.094
   15664.6  566.059
   15673.6  567.026
   15682.6  567.996
   15691.6  568.966
   15700.6  569.938
   15709.6  570.912
   15718.7  571.888
   15727.7  572.865
   15736.7  573.843
   15745.8  574.825
   15754.8  575.806
   15763.9  576.790
   15772.9  577.775
   15782.0  578.762
   15791.1  579.751
   15800.1  580.741
   15809.2  581.734
   15818.3  582.729
   15827.4  583.725
   15836.5  584.722
   15845.6  585.722
   15854.7  586.723
   15863.8  587.726
   15872.9  588.730
   15882.0  589.736
   15891.1  590.744
   15900.3  591.754
   15909.4  592.764
   15918.5  593.778
   15927.7  594.792
   15936.8  595.808
   15946.0  596.826
   15955.2  597.846
   15964.3  598.867
   15973.5  599.890
   15982.7  600.914
   15991.9  601.941
   16001.0  602.969
   16010.2  603.998
   16019.4  605.031
   16028.6  606.064
   16037.8  607.098
   16047.1  608.135
   16056.3  609.175
   16065.5  610.216
   16074.7  611.259
   16084.0  612.303
   16093.2  613.350
   16102.5  614.398
   16111.7  615.447
   16121.0  616.498
   16130.2  617.552
   16139.5  618.607
   16148.8  619.664
   16158.0  620.722
   16167.3  621.783
   16176.6  622.845
   16185.9  623.909
   16195.2  624.975
   16204.5  626.042
   16213.8  627.111
   16223.1  628.181
   16232.5  629.255
   16241.8  630.329
   16251.1  631.405
   16260.5  632.483
   16269.8  633.564
   16279.1  634.645
   16288.5  635.728
   16297.9  636.813
   16307.2  637.901
   16316.6  638.991
   16326.0  640.083
   16335.3  641.178
   16344.7  642.274
   16354.1  643.371
   16363.5  644.470
   16372.9  645.572
   16382.3  646.675
   16391.7  647.780
   16401.2  648.886
   16410.6  649.996
   16420.0  651.106
   16429.4  652.218
   16438.9  653.333
   16448.3  654.448
   16457.8  655.566
   16467.2  656.685
   16476.7  657.808
   16486.2  658.931
   16495.6  660.056
   16505.1  661.183
   16514.6  662.313
   16524.1  663.443
   16533.6  664.576
   16543.1  665.710
   16552.6  666.847
   16562.1  667.986
   16571.6  669.126
   16581.1  670.269
   16590.6  671.415
   16600.2  672.562
   16609.7  673.711
   16619.3  674.863
   16628.8  676.015
   16638.4  677.170
   16647.9  678.326
   16657.5  679.486
   16667.1  680.646
   16676.6  681.808
   16686.2  682.972
   16695.8  684.140
   16705.4  685.307
   16715.0  686.477
   16724.6  687.650
   16734.2  688.824
   16743.8  690.000
   16753.4  691.177
   16763.1  692.357
   16772.7  693.540
   16782.3  694.723
   16792.0  695.909
   16801.6  697.098
   16811.3  698.287
   16820.9  699.478
   16830.6  700.672
   16840.3  701.869
   16849.9  703.068
   16859.6  704.269
   16869.3  705.473
   16879.0  706.678
   16888.7  707.884
   16898.4  709.093
   16908.1  710.305
   16917.8  711.518
   16927.5  712.733
   16937.3  713.950
   16947.0  715.170
   16956.7  716.391
   16966.5  717.614
   16976.2  718.839
   16986.0  720.067
   16995.7  721.296
   17005.5  722.527
   17015.3  723.760
   17025.0  724.997
   17034.8  726.234
   17044.6  727.473
   17054.4  728.715
   17064.2  729.959
   17074.0  731.204
   17083.8  732.452
   17093.6  733.702
   17103.5  734.954
   17113.3  736.208
   17123.1  737.465
   17133.0  738.725
   17142.8  739.987
   17152.6  741.250
   17162.5  742.515
   17172.4  743.784
   17182.2  745.054
   17192.1  746.325
   17202.0  747.601
   17211.9  748.877
   17221.7  750.154
   17231.6  751.434
   17241.5  752.718
   17251.4  754.003
   17261.4  755.289
   17271.3  756.577
   17281.2  757.870
   17291.1  759.162
   17301.1  760.457
   17311.0  761.754
   17320.9  763.055
   17330.9  764.357
   17340.9  765.660
   17350.8  766.967
   17360.8  768.275
   17370.8  769.585
   17380.7  770.897
   17390.7  772.213
   17400.7  773.531
   17410.7  774.851
   17420.7  776.173
   17430.7  777.499
   17440.7  778.826
   17450.8  780.154
   17460.8  781.485
   17470.8  782.820
   17480.9  784.155
   17490.9  785.492
   17500.9  786.832
   17511.0  788.175
   17521.1  789.519
   17531.1  790.866
   17541.2  792.216
   17551.3  793.567
   17561.4  794.919
   17571.5  796.275
   17581.6  797.634
   17591.7  798.993
   17601.8  800.355
   17611.9  801.719
   17622.0  803.087
   17632.1  804.456
   17642.2  805.827
   17652.4  807.201
   17662.5  808.577
   17672.7  809.956
   17682.8  811.338
   17693.0  812.723
   17703.1  814.110
   17713.3  815.499
   17723.5  816.890
   17733.7  818.285
   17743.9  819.681
   17754.1  821.079
   17764.3  822.480
   17774.5  823.884
   17784.7  825.289
   17794.9  826.696
   17805.1  828.106
   17815.4  829.519
   17825.6  830.933
   17835.8  832.350
   17846.1  833.771
   17856.3  835.192
   17866.6  836.615
   17876.9  838.041
   17887.1  839.471
   17897.4  840.902
   17907.7  842.335
   17918.0  843.770
   17928.3  845.209
   17938.6  846.649
   17948.9  848.092
   17959.2  849.537
   17969.5  850.987
   17979.8  852.438
   17990.2  853.892
   18000.5  855.349
   18010.8  856.807
   18021.2  858.268
   18031.5  859.731
   18041.9  861.198
   18052.3  862.666
   18062.6  864.136
   18073.0  865.609
   18083.4  867.085
   18093.8  868.563
   18104.2  870.042
   18114.6  871.526
   18125.0  873.011
   18135.4  874.498
   18145.8  875.988
   18156.2  877.480
   18166.7  878.976
   18177.1  880.473
   18187.6  881.972
   18198.0  883.475
   18208.5  884.980
   18218.9  886.486
   18229.4  887.995
   18239.9  889.509
   18250.3  891.024
   18260.8  892.543
   18271.3  894.066
   18281.8  895.589
   18292.3  897.116
   18302.8  898.644
   18313.3  900.177
   18323.9  901.711
   18334.4  903.247
   18344.9  904.786
   18355.5  906.328
   18366.0  907.872
   18376.6  909.418
   18387.1  910.967
   18397.7  912.520
   18408.3  914.074
   18418.8  915.630
   18429.4  917.189
   18440.0  918.752
   18450.6  920.316
   18461.2  921.883
   18471.8  923.454
   18482.4  925.025
   18493.0  926.600
   18503.7  928.176
   18514.3  929.757
   18524.9  931.339
   18535.6  932.924
   18546.2  934.513
   18556.9  936.107
   18567.5  937.701
   18578.2  939.298
   18588.9  940.898
   18599.6  942.503
   18610.2  944.108
   18620.9  945.715
   18631.6  947.328
   18642.3  948.941
   18653.1  950.556
   18663.8  952.174
   18674.5  953.797
   18685.2  955.421
   18696.0  957.047
   18706.7  958.676
   18717.4  960.309
   18728.2  961.943
   18739.0  963.580
   18749.7  965.219
   18760.5  966.863
   18771.3  968.508
   18782.1  970.156
   18792.9  971.807
   18803.6  973.460
   18814.5  975.116
   18825.3  976.774
   18836.1  978.437
   18846.9  980.102
   18857.7  981.770
   18868.6  983.442
   18879.4  985.117
   18890.2  986.794
   18901.1  988.473
   18912.0  990.155
   18922.8  991.842
   18933.7  993.529
   18944.6  995.219
   18955.5  996.914
   18966.4  998.610
   18977.2  1000.31
   18988.2  1002.01
   18999.1  1003.72
   19010.0  1005.42
   19020.9  1007.13
   19031.8  1008.84
   19042.8  1010.56
   19053.7  1012.28
   19064.6  1014.00
   19075.6  1015.72
   19086.6  1017.45
   19097.5  1019.18
   19108.5  1020.91
   19119.5  1022.65
   19130.5  1024.39
   19141.5  1026.13
   19152.4  1027.87
   19163.5  1029.62
   19174.5  1031.37
   19185.5  1033.13
   19196.5  1034.89
   19207.5  1036.65
   19218.6  1038.41
   19229.6  1040.18
   19240.7  1041.94
   19251.7  1043.72
   19262.8  1045.49
   19273.8  1047.27
   19284.9  1049.05
   19296.0  1050.83
   19307.1  1052.62
   19318.2  1054.41
   19329.3  1056.20
   19340.4  1058.00
   19351.5  1059.79
   19362.6  1061.59
   19373.7  1063.40
   19384.9  1065.21
   19396.0  1067.01
   19407.1  1068.83
   19418.3  1070.64
   19429.4  1072.46
   19440.6  1074.28
   19451.8  1076.11
   19463.0  1077.94
   19474.1  1079.77
   19485.3  1081.60
   19496.5  1083.44
   19507.7  1085.28
   19518.9  1087.13
   19530.1  1088.97
   19541.4  1090.83
   19552.6  1092.68
   19563.8  1094.53
   19575.1  1096.39
   19586.3  1098.26
   19597.6  1100.12
   19608.8  1101.99
   19620.1  1103.86
   19631.4  1105.74
   19642.6  1107.61
   19653.9  1109.49
   19665.2  1111.38
   19676.5  1113.26
   19687.8  1115.15
   19699.1  1117.04
   19710.4  1118.94
   19721.8  1120.84
   19733.1  1122.74
   19744.4  1124.64
   19755.8  1126.55
   19767.1  1128.46
   19778.5  1130.39
   19789.9  1132.32
   19801.2  1134.26
   19812.6  1136.20
   19824.0  1138.14
   19835.4  1140.08
   19846.8  1142.03
   19858.2  1143.98
   19869.6  1145.93
   19881.0  1147.89
   19892.4  1149.85
   19903.8  1151.81
   19915.3  1153.77
   19926.7  1155.74
   19938.2  1157.72
   19949.6  1159.69
   19961.1  1161.67
   19972.6  1163.65
   19984.0  1165.64
   19995.5  1167.62
   20007.0  1169.62
   20018.5  1171.62
   20030.0  1173.62
   20038.9  1175.17
   20047.9  1176.73
   20056.8  1178.29
   20065.7  1179.85
   20074.7  1181.41
   20083.6  1182.98
   20092.6  1184.54
   20101.5  1186.10
   20110.5  1187.66
   20119.5  1189.23
   20128.4  1190.80
   20137.4  1192.37
   20146.4  1193.93
   20155.4  1195.51
   20164.4  1197.08
   20173.3  1198.66
   20182.3  1200.24
   20191.3  1201.82
   20200.3  1203.40
   20209.3  1204.99
   20218.3  1206.57
   20227.4  1208.16
   20236.4  1209.75
   20245.4  1211.34
   20254.4  1212.94
   20263.5  1214.54
   20272.5  1216.13
   20281.5  1217.74
   20290.6  1219.34
   20299.6  1220.94
   20308.7  1222.55
   20317.7  1224.16
   20326.8  1225.77
   20335.8  1227.38
   20344.9  1228.99
   20354.0  1230.61
   20363.0  1232.23
   20372.1  1233.85
   20381.2  1235.47
   20390.3  1237.10
   20399.4  1238.72
   20408.5  1240.35
   20417.6  1241.98
   20426.7  1243.62
   20435.8  1245.25
   20444.9  1246.89
   20454.0  1248.53
   20463.1  1250.17
   20472.2  1251.82
   20481.4  1253.46
   20490.5  1255.11
   20499.6  1256.76
   20508.8  1258.41
   20517.9  1260.06
   20527.1  1261.72
   20536.2  1263.38
   20545.4  1265.04
   20554.5  1266.70
   20563.7  1268.37
   20572.9  1270.03
   20582.0  1271.70
   20591.2  1273.37
   20600.4  1275.04
   20609.6  1276.72
   20618.8  1278.40
   20627.9  1280.07
   20637.1  1281.76
   20646.3  1283.44
   20655.5  1285.12
   20664.8  1286.81
   20674.0  1288.50
   20683.2  1290.19
   20692.4  1291.89
   20701.6  1293.58
   20710.8  1295.28
   20720.1  1296.98
   20729.3  1298.68
   20738.6  1300.38
   20747.8  1302.09
   20757.1  1303.80
   20766.3  1305.51
   20775.6  1307.22
   20784.8  1308.94
   20794.1  1310.66
   20803.4  1312.38
   20812.6  1314.10
   20821.9  1315.82
   20831.2  1317.55
   20840.5  1319.28
   20849.8  1321.00
   20859.1  1322.74
   20868.4  1324.47
   20877.7  1326.21
   20887.0  1327.95
   20896.3  1329.69
   20905.6  1331.43
   20914.9  1333.18
   20924.2  1334.92
   20933.6  1336.67
   20942.9  1338.42
   20952.2  1340.18
   20961.6  1341.94
   20970.9  1343.69
   20980.3  1345.45
   20989.6  1347.22
   20999.0  1348.98
   21008.3  1350.75
   21017.7  1352.52
   21027.1  1354.29
   21036.5  1356.06
   21045.8  1357.84
   21055.2  1359.61
   21064.6  1361.39
   21074.0  1363.18
   21083.4  1364.96
   21092.8  1366.75
   21102.2  1368.54
   21111.6  1370.33
   21121.0  1372.12
   21130.4  1373.92
   21139.8  1375.72
   21149.3  1377.52
   21158.7  1379.32
   21168.1  1381.13
   21177.6  1382.93
   21187.0  1384.74
   21196.4  1386.55
   21205.9  1388.37
   21215.3  1390.18
   21224.8  1392.00
   21234.3  1393.82
   21243.7  1395.65
   21253.2  1397.47
   21262.7  1399.30
   21272.2  1401.13
   21281.6  1402.96
   21291.1  1404.79
   21300.6  1406.63
   21310.1  1408.47
   21319.6  1410.31
   21329.1  1412.15
   21338.6  1414.00
   21348.1  1415.84
   21357.7  1417.70
   21367.2  1419.55
   21376.7  1421.40
   21386.2  1423.26
   21395.8  1425.12
   21405.3  1426.98
   21414.8  1428.84
   21424.4  1430.71
   21433.9  1432.58
   21443.5  1434.45
   21453.1  1436.32
   21462.6  1438.20
   21472.2  1440.08
   21481.8  1441.95
   21491.3  1443.84
   21500.9  1445.72
   21510.5  1447.61
   21520.1  1449.50
   21529.7  1451.39
   21539.3  1453.28
   21548.9  1455.18
   21558.5  1457.08
   21568.1  1458.98
   21577.7  1460.88
   21587.3  1462.79
   21597.0  1464.70
   21606.6  1466.61
   21616.2  1468.52
   21625.9  1470.43
   21635.5  1472.35
   21645.1  1474.27
   21654.8  1476.19
   21664.4  1478.12
   21674.1  1480.04
   21683.8  1481.97
   21693.4  1483.90
   21703.1  1485.84
   21712.8  1487.77
   21722.5  1489.71
   21732.1  1491.65
   21741.8  1493.60
   21751.5  1495.54
   21761.2  1497.49
   21770.9  1499.44
   21780.6  1501.40
   21790.3  1503.35
   21800.0  1505.31
   21809.8  1507.27
   21819.5  1509.23
   21829.2  1511.20
   21838.9  1513.17
   21848.7  1515.14
   21858.4  1517.11
   21868.2  1519.09
   21877.9  1521.07
   21887.7  1523.05
   21897.4  1525.03
   21907.2  1527.01
   21916.9  1529.00
   21926.7  1530.99
   21936.5  1532.98
   21946.3  1534.98
   21956.1  1536.98
   21965.8  1538.98
   21975.6  1540.98
   21985.4  1542.98
   21995.2  1544.99
   22005.0  1547.00
   22014.8  1549.01
   22024.7  1551.02
   22034.5  1553.04
   22044.3  1555.06
   22054.1  1557.08
   22064.0  1559.10
   22073.8  1561.13
   22083.6  1563.16
   22093.5  1565.19
   22103.3  1567.23
   22113.2  1569.26
   22123.0  1571.30
   22132.9  1573.34
   22142.8  1575.39
   22152.6  1577.43
   22162.5  1579.48
   22172.4  1581.54
   22182.3  1583.59
   22192.2  1585.65
   22202.1  1587.71
   22212.0  1589.77
   22221.9  1591.83
   22231.8  1593.90
   22241.7  1595.97
   22251.6  1598.04
   22261.5  1600.11
   22271.4  1602.19
   22281.4  1604.27
   22291.3  1606.35
   22301.2  1608.43
   22311.2  1610.52
   22321.1  1612.61
   22331.1  1614.70
   22341.0  1616.80
   22351.0  1618.90
   22360.9  1621.00
   22370.9  1623.10
   22380.9  1625.20
   22390.9  1627.31
   22400.8  1629.42
   22410.8  1631.53
   22420.8  1633.64
   22430.8  1635.76
   22440.8  1637.88
   22450.8  1640.00
   22460.8  1642.13
   22470.8  1644.25
   22480.9  1646.39
   22490.9  1648.52
   22500.9  1650.65
   22510.9  1652.80
   22521.0  1654.94
   22531.0  1657.08
   22541.1  1659.23
   22551.1  1661.37
   22561.2  1663.52
   22571.2  1665.68
   22581.3  1667.84
   22591.3  1669.99
   22601.4  1672.16
   22611.5  1674.32
   22621.6  1676.49
   22631.7  1678.66
   22641.7  1680.83
   22651.8  1683.00
   22661.9  1685.18
   22672.0  1687.36
   22682.1  1689.54
   22692.3  1691.73
   22702.4  1693.92
   22712.5  1696.11
   22722.6  1698.30
   22732.7  1700.50
   22742.9  1702.69
   22753.0  1704.90
   22763.2  1707.10
   22773.3  1709.30
   22783.5  1711.52
   22793.6  1713.73
   22803.8  1715.94
   22813.9  1718.16
   22824.1  1720.38
   22834.3  1722.60
   22844.5  1724.82
   22854.7  1727.05
   22864.8  1729.28
   22875.0  1731.52
   22885.2  1733.75
   22895.4  1735.99
   22905.6  1738.24
   22915.9  1740.48
   22926.1  1742.72
   22936.3  1744.98
   22946.5  1747.23
   22956.7  1749.48
   22967.0  1751.74
   22977.2  1754.00
   22987.5  1756.26
   22997.7  1758.53
   23008.0  1760.80
   23018.2  1763.07
   23028.5  1765.35
   23038.7  1767.62
   23049.0  1769.90
   23059.3  1772.18
   23069.6  1774.47
   23079.8  1776.75
   23090.1  1779.05
   23100.4  1781.34
   23110.7  1783.63
   23121.0  1785.93
   23131.3  1788.23
   23141.7  1790.54
   23152.0  1792.84
   23162.3  1795.15
   23172.6  1797.47
   23182.9  1799.78
   23193.3  1802.10
   23203.6  1804.42
   23214.0  1806.74
   23224.3  1809.07
   23234.7  1811.40
   23245.0  1813.73
   23255.4  1816.06
   23265.8  1818.40
   23276.1  1820.74
   23286.5  1823.09
   23296.9  1825.43
   23307.3  1827.78
   23317.7  1830.13
   23328.0  1832.49
   23338.4  1834.84
   23348.9  1837.20
   23359.3  1839.57
   23369.7  1841.93
   23380.1  1844.30
   23390.5  1846.67
   23400.9  1849.05
   23411.4  1851.42
   23421.8  1853.80
   23432.2  1856.18
   23442.7  1858.57
   23453.1  1860.96
   23463.6  1863.35
   23474.1  1865.74
   23484.5  1868.14
   23495.0  1870.54
   23505.5  1872.94
   23515.9  1875.34
   23526.4  1877.75
   23536.9  1880.16
   23547.4  1882.58
   23557.9  1884.99
   23568.4  1887.41
   23578.9  1889.83
   23589.4  1892.26
   23599.9  1894.68
   23610.5  1897.12
   23621.0  1899.55
   23631.5  1901.99
   23642.1  1904.43
   23652.6  1906.87
   23663.1  1909.32
   23673.7  1911.77
   23684.2  1914.22
   23694.8  1916.67
   23705.4  1919.13
   23715.9  1921.59
   23726.5  1924.05
   23737.1  1926.52
   23747.7  1928.99
   23758.2  1931.46
   23768.8  1933.94
   23779.4  1936.42
   23790.0  1938.90
   23800.6  1941.38
   23811.2  1943.87
   23821.9  1946.35
   23832.5  1948.85
   23843.1  1951.34
   23853.7  1953.84
   23864.4  1956.34
   23875.0  1958.85
   23885.7  1961.35
   23896.3  1963.86
   23907.0  1966.37
   23917.6  1968.89
   23928.3  1971.41
   23938.9  1973.93
   23949.6  1976.45
   23960.3  1978.98
   23971.0  1981.51
   23981.7  1984.05
   23992.3  1986.59
   24003.0  1989.12
   24013.7  1991.67
   24024.4  1994.21
   24035.2  1996.76
   24045.9  1999.32
   24056.6  2001.87
   24067.3  2004.43
   24078.0  2006.99
   24088.8  2009.55
   24099.5  2012.12
   24110.3  2014.69
   24121.0  2017.26
   24131.8  2019.84
   24142.5  2022.42
   24153.3  2025.00
   24164.0  2027.58
   24174.8  2030.17
   24185.6  2032.76
   24196.4  2035.36
   24207.2  2037.96
   24218.0  2040.55
   24228.7  2043.16
   24239.5  2045.76
   24250.4  2048.37
   24261.2  2050.98
   24272.0  2053.60
   24282.8  2056.22
   24293.6  2058.84
   24304.5  2061.46
   24315.3  2064.09
   24326.1  2066.72
   24337.0  2069.35
   24347.8  2071.99
   24358.7  2074.63
   24369.5  2077.27
   24380.4  2079.92
   24391.3  2082.57
   24402.1  2085.22
   24413.0  2087.87
   24423.9  2090.53
   24434.8  2093.20
   24445.7  2095.86
   24456.6  2098.53
   24467.5  2101.20
   24478.4  2103.87
   24489.3  2106.55
   24500.2  2109.23
   24511.1  2111.91
   24522.1  2114.60
   24533.0  2117.29
   24543.9  2119.98
   24554.9  2122.68
   24565.8  2125.38
   24576.8  2128.08
   24587.7  2130.78
   24598.7  2133.49
   24609.7  2136.20
   24620.6  2138.91
   24631.6  2141.63
   24642.6  2144.35
   24653.6  2147.08
   24664.6  2149.80
   24675.6  2152.53
   24686.6  2155.26
   24697.6  2158.00
   24708.6  2160.74
   24719.6  2163.48
   24730.6  2166.23
   24741.6  2168.98
   24752.7  2171.73
   24763.7  2174.49
   24774.7  2177.24
   24785.8  2180.01
   24796.8  2182.77
   24807.9  2185.54
   24818.9  2188.32
   24830.0  2191.09
   24841.1  2193.87
   24852.1  2196.65
   24863.2  2199.43
   24874.3  2202.22
   24885.4  2205.01
   24896.5  2207.81
   24907.6  2210.60
   24918.7  2213.40
   24929.8  2216.21
   24940.9  2219.01
   24952.0  2221.82
   24963.2  2224.64
   24974.3  2227.45
   24985.4  2230.27
   24996.6  2233.09
   25007.7  2235.92
   25018.8  2238.75
   25030.0  2241.58
   25039.1  2243.89
   25048.1  2246.19
   25057.2  2248.50
   25066.3  2250.81
   25075.4  2253.12
   25084.5  2255.44
   25093.5  2257.76
   25102.6  2260.08
   25111.7  2262.39
   25120.8  2264.72
   25129.9  2267.04
   25139.0  2269.37
   25148.1  2271.70
   25157.3  2274.04
   25166.4  2276.37
   25175.5  2278.71
   25184.6  2281.05
   25193.7  2283.39
   25202.9  2285.74
   25212.0  2288.08
   25221.1  2290.43
   25230.3  2292.78
   25239.4  2295.14
   25248.6  2297.49
   25257.7  2299.85
   25266.9  2302.21
   25276.0  2304.57
   25285.2  2306.93
   25294.3  2309.30
   25303.5  2311.67
   25312.7  2314.04
   25321.8  2316.41
   25331.0  2318.79
   25340.2  2321.16
   25349.4  2323.54
   25358.5  2325.92
   25367.7  2328.30
   25376.9  2330.69
   25386.1  2333.08
   25395.3  2335.47
   25404.5  2337.86
   25413.7  2340.25
   25422.9  2342.65
   25432.1  2345.05
   25441.4  2347.45
   25450.6  2349.85
   25459.8  2352.26
   25469.0  2354.66
   25478.2  2357.07
   25487.5  2359.49
   25496.7  2361.90
   25506.0  2364.32
   25515.2  2366.73
   25524.4  2369.15
   25533.7  2371.58
   25542.9  2374.00
   25552.2  2376.43
   25561.4  2378.86
   25570.7  2381.29
   25580.0  2383.73
   25589.2  2386.16
   25598.5  2388.60
   25607.8  2391.05
   25617.1  2393.49
   25626.3  2395.94
   25635.6  2398.38
   25644.9  2400.83
   25654.2  2403.29
   25663.5  2405.74
   25672.8  2408.20
   25682.1  2410.66
   25691.4  2413.12
   25700.7  2415.58
   25710.0  2418.05
   25719.3  2420.52
   25728.7  2422.99
   25738.0  2425.46
   25747.3  2427.93
   25756.6  2430.41
   25766.0  2432.89
   25775.3  2435.37
   25784.6  2437.86
   25794.0  2440.35
   25803.3  2442.83
   25812.7  2445.32
   25822.0  2447.82
   25831.4  2450.31
   25840.7  2452.81
   25850.1  2455.31
   25859.5  2457.81
   25868.8  2460.31
   25878.2  2462.82
   25887.6  2465.33
   25897.0  2467.84
   25906.4  2470.35
   25915.7  2472.87
   25925.1  2475.38
   25934.5  2477.90
   25943.9  2480.43
   25953.3  2482.95
   25962.7  2485.48
   25972.1  2488.01
   25981.5  2490.54
   25991.0  2493.08
   26000.4  2495.61
   26009.8  2498.15
   26019.2  2500.70
   26028.6  2503.24
   26038.1  2505.79
   26047.5  2508.34
   26056.9  2510.89
   26066.4  2513.44
   26075.8  2516.00
   26085.3  2518.56
   26094.7  2521.12
   26104.2  2523.68
   26113.6  2526.24
   26123.1  2528.81
   26132.6  2531.38
   26142.0  2533.95
   26151.5  2536.53
   26161.0  2539.10
   26170.5  2541.68
   26179.9  2544.26
   26189.4  2546.85
   26198.9  2549.43
   26208.4  2552.02
   26217.9  2554.61
   26227.4  2557.20
   26236.9  2559.80
   26246.4  2562.39
   26255.9  2564.99
   26265.4  2567.60
   26274.9  2570.20
   26284.5  2572.80
   26294.0  2575.41
   26303.5  2578.02
   26313.0  2580.64
   26322.6  2583.25
   26332.1  2585.87
   26341.7  2588.49
   26351.2  2591.11
   26360.7  2593.74
   26370.3  2596.37
   26379.9  2599.00
   26389.4  2601.63
   26399.0  2604.26
   26408.5  2606.90
   26418.1  2609.54
   26427.7  2612.18
   26437.2  2614.83
   26446.8  2617.48
   26456.4  2620.13
   26466.0  2622.77
   26475.6  2625.43
   26485.2  2628.09
   26494.8  2630.75
   26504.4  2633.41
   26514.0  2636.07
   26523.6  2638.73
   26533.2  2641.40
   26542.8  2644.07
   26552.4  2646.75
   26562.0  2649.42
   26571.7  2652.10
   26581.3  2654.78
   26590.9  2657.46
   26600.6  2660.15
   26610.2  2662.83
   26619.8  2665.52
   26629.5  2668.22
   26639.1  2670.91
   26648.8  2673.60
   26658.4  2676.30
   26668.1  2679.00
   26677.8  2681.71
   26687.4  2684.42
   26697.1  2687.12
   26706.8  2689.83
   26716.4  2692.55
   26726.1  2695.26
   26735.8  2697.98
   26745.5  2700.70
   26755.2  2703.42
   26764.9  2706.15
   26774.6  2708.87
   26784.3  2711.60
   26794.0  2714.34
   26803.7  2717.07
   26813.4  2719.81
   26823.1  2722.55
   26832.8  2725.29
   26842.5  2728.04
   26852.3  2730.79
   26862.0  2733.54
   26871.7  2736.29
   26881.5  2739.05
   26891.2  2741.80
   26901.0  2744.56
   26910.7  2747.33
   26920.5  2750.09
   26930.2  2752.86
   26940.0  2755.63
   26949.7  2758.40
   26959.5  2761.18
   26969.3  2763.95
   26979.0  2766.73
   26988.8  2769.52
   26998.6  2772.30
   27008.4  2775.09
   27018.1  2777.88
   27027.9  2780.67
   27037.7  2783.46
   27047.5  2786.26
   27057.3  2789.06
   27067.1  2791.86
   27076.9  2794.66
   27086.7  2797.47
   27096.6  2800.28
   27106.4  2803.09
   27116.2  2805.91
   27126.0  2808.72
   27135.8  2811.54
   27145.7  2814.36
   27155.5  2817.18
   27165.4  2820.01
   27175.2  2822.84
   27185.0  2825.67
   27194.9  2828.50
   27204.7  2831.33
   27214.6  2834.17
   27224.5  2837.02
   27234.3  2839.86
   27244.2  2842.71
   27254.1  2845.56
   27263.9  2848.40
   27273.8  2851.26
   27283.7  2854.11
   27293.6  2856.98
   27303.5  2859.84
   27313.4  2862.70
   27323.3  2865.56
   27333.2  2868.44
   27343.1  2871.31
   27353.0  2874.18
   27362.9  2877.06
   27372.8  2879.94
   27382.7  2882.82
   27392.6  2885.70
   27402.6  2888.59
   27412.5  2891.48
   27422.4  2894.37
   27432.3  2897.26
   27442.3  2900.16
   27452.2  2903.06
   27462.2  2905.96
   27472.1  2908.86
   27482.1  2911.77
   27492.0  2914.68
   27502.0  2917.59
   27512.0  2920.50
   27521.9  2923.42
   27531.9  2926.34
   27541.9  2929.26
   27551.9  2932.18
   27561.8  2935.11
   27571.8  2938.03
   27581.8  2940.97
   27591.8  2943.90
   27601.8  2946.84
   27611.8  2949.78
   27621.8  2952.72
   27631.8  2955.66
   27641.8  2958.60
   27651.8  2961.55
   27661.9  2964.51
   27671.9  2967.46
   27681.9  2970.42
   27691.9  2973.37
   27702.0  2976.34
   27712.0  2979.30
   27722.0  2982.27
   27732.1  2985.25
   27742.1  2988.22
   27752.2  2991.20
   27762.2  2994.17
   27772.3  2997.15
   27782.4  3000.14
   27792.4  3003.12
   27802.5  3006.11
   27812.6  3009.11
   27822.7  3012.10
   27832.7  3015.09
   27842.8  3018.09
   27852.9  3021.09
   27863.0  3024.10
   27873.1  3027.11
   27883.2  3030.12
   27893.3  3033.12
   27903.4  3036.14
   27913.5  3039.16
   27923.6  3042.18
   27933.7  3045.20
   27943.9  3048.22
   27954.0  3051.25
   27964.1  3054.28
   27974.2  3057.31
   27984.4  3060.34
   27994.5  3063.38
   28004.7  3066.42
   28014.8  3069.46
   28025.0  3072.51
   28035.1  3075.55
   28045.3  3078.60
   28055.4  3081.66
   28065.6  3084.71
   28075.8  3087.77
   28085.9  3090.83
   28096.1  3093.89
   28106.3  3096.96
   28116.5  3100.03
   28126.7  3103.10
   28136.8  3106.17
   28147.0  3109.24
   28157.2  3112.32
   28167.4  3115.41
   28177.6  3118.49
   28187.9  3121.58
   28198.1  3124.67
   28208.3  3127.76
   28218.5  3130.85
   28228.7  3133.95
   28239.0  3137.05
   28249.2  3140.16
   28259.4  3143.26
   28269.7  3146.37
   28279.9  3149.48
   28290.2  3152.59
   28300.4  3155.71
   28310.7  3158.83
   28320.9  3161.95
   28331.2  3165.07
   28341.4  3168.19
   28351.7  3171.32
   28362.0  3174.46
   28372.3  3177.59
   28382.5  3180.73
   28392.8  3183.87
   28403.1  3187.00
   28413.4  3190.15
   28423.7  3193.30
   28434.0  3196.45
   28444.3  3199.60
   28454.6  3202.76
   28464.9  3205.91
   28475.2  3209.07
   28485.5  3212.23
   28495.9  3215.40
   28506.2  3218.57
   28516.5  3221.74
   28526.8  3224.91
   28537.2  3228.08
   28547.5  3231.26
   28557.9  3234.44
   28568.2  3237.63
   28578.6  3240.81
   28588.9  3244.00
   28599.3  3247.19
   28609.6  3250.39
   28620.0  3253.59
   28630.4  3256.79
   28640.7  3260.00
   28651.1  3263.21
   28661.5  3266.41
   28671.9  3269.62
   28682.3  3272.84
   28692.7  3276.06
   28703.1  3279.28
   28713.5  3282.50
   28723.9  3285.72
   28734.3  3288.95
   28744.7  3292.18
   28755.1  3295.42
   28765.5  3298.65
   28775.9  3301.90
   28786.4  3305.14
   28796.8  3308.38
   28807.2  3311.62
   28817.7  3314.87
   28828.1  3318.13
   28838.5  3321.38
   28849.0  3324.64
   28859.4  3327.90
   28869.9  3331.16
   28880.4  3334.42
   28890.8  3337.69
   28901.3  3340.97
   28911.8  3344.24
   28922.2  3347.51
   28932.7  3350.79
   28943.2  3354.07
   28953.7  3357.36
   28964.2  3360.64
   28974.7  3363.94
   28985.2  3367.22
   28995.7  3370.52
   29006.2  3373.81
   29016.7  3377.12
   29027.2  3380.42
   29037.7  3383.72
   29048.2  3387.03
   29058.8  3390.34
   29069.3  3393.66
   29079.8  3396.97
   29090.4  3400.30
   29100.9  3403.62
   29111.4  3406.95
   29122.0  3410.27
   29132.5  3413.60
   29143.1  3416.94
   29153.6  3420.27
   29164.2  3423.61
   29174.8  3426.96
   29185.3  3430.29
   29195.9  3433.64
   29206.5  3436.99
   29217.1  3440.35
   29227.7  3443.70
   29238.3  3447.06
   29248.8  3450.42
   29259.4  3453.78
   29270.0  3457.15
   29280.7  3460.52
   29291.3  3463.89
   29301.9  3467.27
   29312.5  3470.64
   29323.1  3474.02
   29333.7  3477.40
   29344.4  3480.79
   29355.0  3484.18
   29365.6  3487.57
   29376.3  3490.96
   29386.9  3494.35
   29397.6  3497.75
   29408.2  3501.15
   29418.9  3504.56
   29429.5  3507.96
   29440.2  3511.37
   29450.9  3514.78
   29461.5  3518.20
   29472.2  3521.62
   29482.9  3525.04
   29493.6  3528.46
   29504.2  3531.89
   29514.9  3535.32
   29525.6  3538.74
   29536.3  3542.18
   29547.0  3545.62
   29557.7  3549.06
   29568.4  3552.51
   29579.2  3555.96
   29589.9  3559.40
   29600.6  3562.85
   29611.3  3566.31
   29622.0  3569.77
   29632.8  3573.23
   29643.5  3576.69
   29654.3  3580.16
   29665.0  3583.62
   29675.7  3587.10
   29686.5  3590.57
   29697.3  3594.05
   29708.0  3597.53
   29718.8  3601.02
   29729.5  3604.49
   29740.3  3607.98
   29751.1  3611.48
   29761.9  3614.97
   29772.7  3618.47
   29783.4  3621.97
   29794.2  3625.46
   29805.0  3628.97
   29815.8  3632.48
   29826.6  3635.99
   29837.4  3639.50
   29848.2  3643.02
   29859.1  3646.53
   29869.9  3650.05
   29880.7  3653.58
   29891.5  3657.11
   29902.4  3660.64
   29913.2  3664.17
   29924.0  3667.71
   29934.9  3671.24
   29945.7  3674.78
   29956.6  3678.32
   29967.4  3681.87
   29978.3  3685.42
   29989.1  3688.97
   30000.0  3692.52
