 Cu Density=8.96, Angle=90.deg
 Photon Energy (eV), Atten Length (microns)
   30.0000  1.045205E-02
   30.3089  1.043604E-02
   30.6210  1.042007E-02
   30.9363  1.040605E-02
   31.2548  1.039847E-02
   31.5766  1.051649E-02
   31.9018  1.063585E-02
   32.2302  1.075657E-02
   32.5621  1.087865E-02
   32.8974  1.100334E-02
   33.2361  1.113187E-02
   33.5783  1.132550E-02
   33.9241  1.154141E-02
   34.2734  1.176145E-02
   34.6263  1.198567E-02
   34.9828  1.221415E-02
   35.3430  1.244699E-02
   35.7069  1.268428E-02
   36.0746  1.292610E-02
   36.4460  1.317253E-02
   36.8213  1.339035E-02
   37.2004  1.355599E-02
   37.5835  1.366592E-02
   37.9705  1.376317E-02
   38.3614  1.386114E-02
   38.7564  1.395978E-02
   39.1555  1.405911E-02
   39.5586  1.415917E-02
   39.9660  1.425993E-02
   40.3775  1.436140E-02
   40.7932  1.446362E-02
   41.2133  1.453521E-02
   41.6376  1.456247E-02
   42.0663  1.456548E-02
   42.4995  1.456410E-02
   42.9371  1.456273E-02
   43.3792  1.456136E-02
   43.8258  1.455998E-02
   44.2771  1.455861E-02
   44.7330  1.455724E-02
   45.1936  1.455586E-02
   45.6589  1.455451E-02
   46.1291  1.455314E-02
   46.6041  1.455174E-02
   47.0839  1.456552E-02
   47.5687  1.458515E-02
   48.0585  1.461305E-02
   48.5534  1.464102E-02
   49.0533  1.466904E-02
   49.5584  1.469713E-02
   50.0687  1.472527E-02
   50.5842  1.475347E-02
   51.1050  1.478170E-02
   51.6312  1.480999E-02
   52.1629  1.483832E-02
   52.7000  1.486671E-02
   53.2426  1.489434E-02
   53.7908  1.492054E-02
   54.3447  1.494442E-02
   54.9043  1.496771E-02
   55.4696  1.499104E-02
   56.0407  1.501440E-02
   56.6178  1.503779E-02
   57.2007  1.506123E-02
   57.7897  1.508471E-02
   58.3847  1.510822E-02
   58.9859  1.513175E-02
   59.5933  1.515552E-02
   60.2069  1.517964E-02
   60.8268  1.521412E-02
   61.4531  1.525091E-02
   62.0859  1.528780E-02
   62.7251  1.532479E-02
   63.3710  1.536187E-02
   64.0235  1.539903E-02
   64.6827  1.543628E-02
   65.3487  1.547362E-02
   66.0216  1.551106E-02
   66.7014  1.554858E-02
   67.3882  1.558620E-02
   68.0821  1.562390E-02
   68.7831  1.567134E-02
   69.4913  1.574233E-02
   70.2068  1.581640E-02
   70.9297  1.589187E-02
   71.6601  1.596769E-02
   72.3979  1.604388E-02
   73.1434  1.612042E-02
   73.8965  1.619733E-02
   74.6574  1.627461E-02
   75.4261  1.635226E-02
   76.2027  1.643028E-02
   76.9874  1.650775E-02
   77.7801  1.658372E-02
   78.5809  1.665530E-02
   79.3901  1.672570E-02
   80.2075  1.679640E-02
   81.0334  1.686740E-02
   81.8677  1.693872E-02
   82.7107  1.701033E-02
   83.5623  1.708224E-02
   84.4228  1.715446E-02
   85.2920  1.720852E-02
   86.1702  1.725680E-02
   87.0575  1.729720E-02
   87.9539  1.733768E-02
   88.8595  1.737825E-02
   89.7745  1.741894E-02
   90.6988  1.745971E-02
   91.6327  1.750059E-02
   92.5762  1.754155E-02
   93.5295  1.758261E-02
   94.4925  1.762376E-02
   95.4655  1.765458E-02
   96.4484  1.768396E-02
   97.4415  1.771169E-02
   98.4448  1.773947E-02
   99.4585  1.776729E-02
   100.483  1.779514E-02
   101.517  1.782302E-02
   102.562  1.785096E-02
   103.619  1.787900E-02
   104.685  1.790704E-02
   105.763  1.793510E-02
   106.852  1.796872E-02
   107.953  1.800613E-02
   109.064  1.804844E-02
   110.187  1.809091E-02
   111.322  1.813348E-02
   112.468  1.817617E-02
   113.626  1.821895E-02
   114.796  1.826182E-02
   115.978  1.830475E-02
   117.172  1.834782E-02
   118.379  1.839102E-02
   119.597  1.843422E-02
   120.829  1.847866E-02
   122.073  1.852449E-02
   123.330  1.861531E-02
   124.600  1.871121E-02
   125.883  1.880759E-02
   127.179  1.890443E-02
   128.488  1.900177E-02
   129.811  1.909967E-02
   131.148  1.919805E-02
   132.498  1.929693E-02
   133.863  1.939640E-02
   135.241  1.949631E-02
   136.634  1.959666E-02
   138.040  1.969757E-02
   139.462  1.979904E-02
   140.898  1.990107E-02
   142.349  2.000361E-02
   143.814  2.010856E-02
   145.295  2.021987E-02
   146.791  2.039725E-02
   148.303  2.060772E-02
   149.830  2.082046E-02
   151.372  2.103533E-02
   152.931  2.125237E-02
   154.506  2.147165E-02
   156.096  2.169319E-02
   157.704  2.191702E-02
   159.328  2.214316E-02
   160.968  2.237166E-02
   162.626  2.260260E-02
   164.300  2.283585E-02
   165.992  2.307147E-02
   167.701  2.330952E-02
   169.428  2.355002E-02
   171.172  2.379441E-02
   172.935  2.413532E-02
   174.715  2.449207E-02
   176.514  2.486780E-02
   178.332  2.524926E-02
   180.168  2.563659E-02
   182.023  2.602988E-02
   183.897  2.642916E-02
   185.791  2.683454E-02
   187.704  2.724609E-02
   189.637  2.766410E-02
   191.589  2.808860E-02
   193.562  2.851938E-02
   195.555  2.895679E-02
   197.568  2.940093E-02
   199.603  2.989745E-02
   201.658  3.041426E-02
   203.734  3.095456E-02
   205.832  3.150440E-02
   207.952  3.206399E-02
   210.093  3.263353E-02
   212.256  3.321315E-02
   214.441  3.380106E-02
   216.650  3.437789E-02
   218.880  3.496351E-02
   221.134  3.555812E-02
   223.411  3.616285E-02
   225.711  3.677790E-02
   228.035  3.740347E-02
   230.383  3.803966E-02
   232.756  3.868668E-02
   235.152  3.934468E-02
   237.573  4.001382E-02
   240.020  4.069430E-02
   242.491  4.138637E-02
   244.988  4.211188E-02
   247.510  4.286767E-02
   250.059  4.364047E-02
   252.634  4.442719E-02
   255.235  4.522799E-02
   257.863  4.604333E-02
   260.518  4.687338E-02
   263.201  4.771838E-02
   265.911  4.857856E-02
   268.649  4.945425E-02
   271.415  5.034577E-02
   274.209  5.125336E-02
   277.033  5.217731E-02
   279.885  5.311785E-02
   282.767  5.407538E-02
   285.679  5.505018E-02
   288.620  5.604256E-02
   291.592  5.705281E-02
   294.594  5.808129E-02
   297.628  5.912830E-02
   300.692  6.019689E-02
   303.788  6.129634E-02
   306.916  6.245358E-02
   310.077  6.365533E-02
   313.269  6.488042E-02
   316.495  6.612904E-02
   319.754  6.740166E-02
   323.046  6.869882E-02
   326.372  7.002088E-02
   329.733  7.136827E-02
   333.128  7.274175E-02
   336.558  7.414169E-02
   340.024  7.556859E-02
   343.525  7.702284E-02
   347.062  7.850498E-02
   350.635  8.001582E-02
   354.246  8.155569E-02
   357.893  8.312515E-02
   361.578  8.474401E-02
   365.301  8.639944E-02
   369.063  8.809387E-02
   372.863  8.982129E-02
   376.702  9.158251E-02
   380.581  9.337841E-02
   384.499  9.520956E-02
   388.459  9.707664E-02
   392.458  9.898014E-02
   396.499  0.100921
   400.582  0.102900
   404.707  0.104918
   408.874  0.107048
   413.084  0.109318
   417.337  0.111839
   421.634  0.114448
   425.976  0.117119
   430.362  0.119852
   434.793  0.122648
   439.270  0.125510
   443.793  0.128439
   448.362  0.131436
   452.979  0.134503
   457.643  0.137577
   462.355  0.140648
   467.116  0.143358
   471.926  0.146075
   476.785  0.148843
   481.694  0.151664
   486.654  0.154538
   491.665  0.157466
   496.727  0.160450
   501.842  0.163499
   507.009  0.166708
   512.230  0.170159
   517.504  0.173860
   522.832  0.177642
   528.216  0.181506
   533.655  0.185454
   539.150  0.189488
   544.701  0.193610
   550.310  0.197821
   555.976  0.202124
   561.701  0.206520
   567.484  0.211012
   573.327  0.215602
   579.231  0.220292
   585.195  0.225374
   591.220  0.230636
   597.308  0.236101
   603.458  0.241695
   609.672  0.247422
   615.949  0.253285
   622.291  0.259286
   628.699  0.265429
   635.172  0.271719
   641.712  0.278218
   648.320  0.284922
   654.995  0.292078
   661.740  0.299413
   668.553  0.306934
   675.437  0.314643
   682.392  0.322546
   689.418  0.330647
   696.517  0.338951
   703.689  0.347313
   710.934  0.355191
   718.254  0.362774
   725.650  0.370219
   733.122  0.377816
   740.670  0.385569
   748.297  0.393482
   756.002  0.401557
   763.786  0.409796
   771.650  0.418205
   779.596  0.427167
   787.623  0.436648
   795.733  0.447140
   803.926  0.457884
   812.204  0.468886
   820.567  0.480153
   829.016  0.491690
   837.552  0.503504
   846.176  0.515602
   854.888  0.529348
   863.691  0.545670
   872.584  0.562901
   881.569  0.580494
   890.646  0.597817
   899.816  0.614114
   909.081  0.632662
   918.442  0.670713
   927.899  0.711053
   937.453  8.634344E-02
   947.106  8.893155E-02
   956.858  9.159741E-02
   966.710  9.434342E-02
   976.664  9.717014E-02
   986.720  0.100081
   996.880  0.103080
   1007.14  0.106168
   1017.51  0.109349
   1027.99  0.112626
   1038.58  0.115605
   1049.27  0.118364
   1060.07  0.120445
   1070.99  0.122561
   1082.02  0.124715
   1093.16  0.126907
   1104.41  0.129137
   1115.79  0.131406
   1127.27  0.133716
   1138.88  0.136066
   1150.61  0.138457
   1162.46  0.140890
   1174.42  0.143365
   1186.52  0.145885
   1198.73  0.148449
   1211.08  0.151058
   1223.55  0.153712
   1236.15  0.156541
   1248.87  0.159649
   1261.73  0.163159
   1274.72  0.166961
   1287.85  0.171281
   1301.11  0.175711
   1314.51  0.180257
   1328.04  0.184919
   1341.72  0.189702
   1355.53  0.194610
   1369.49  0.199645
   1383.59  0.204810
   1397.84  0.210106
   1412.23  0.215541
   1426.77  0.221117
   1441.46  0.226838
   1456.30  0.232708
   1471.30  0.238731
   1486.45  0.244915
   1501.75  0.251271
   1517.22  0.257800
   1532.84  0.264502
   1548.62  0.271377
   1564.57  0.278430
   1580.68  0.285667
   1596.95  0.293093
   1613.40  0.300712
   1630.01  0.308530
   1646.79  0.316551
   1663.75  0.324780
   1680.88  0.333222
   1698.19  0.341884
   1715.67  0.350771
   1733.34  0.359954
   1751.18  0.369451
   1769.22  0.379245
   1787.43  0.389318
   1805.84  0.399687
   1824.43  0.410330
   1843.22  0.421256
   1862.20  0.432469
   1881.37  0.443980
   1900.74  0.455797
   1920.31  0.467936
   1940.09  0.480397
   1960.06  0.493190
   1980.24  0.506316
   2000.63  0.519738
   2021.23  0.533427
   2042.05  0.547713
   2063.07  0.562443
   2084.31  0.577582
   2105.78  0.593143
   2127.46  0.609135
   2149.36  0.625580
   2171.49  0.642494
   2193.85  0.659887
   2216.44  0.677766
   2239.26  0.696134
   2262.32  0.715006
   2285.62  0.734417
   2309.15  0.754375
   2332.93  0.774913
   2356.95  0.796004
   2381.22  0.817675
   2405.73  0.839993
   2430.51  0.862918
   2455.53  0.886469
   2480.81  0.910718
   2506.36  0.935632
   2532.17  0.961230
   2558.24  0.987538
   2584.58  1.01459
   2611.19  1.04242
   2638.08  1.07105
   2665.24  1.10048
   2692.68  1.13069
   2720.41  1.16177
   2748.42  1.19372
   2776.72  1.22659
   2805.31  1.26038
   2834.20  1.29511
   2863.38  1.33083
   2892.86  1.36755
   2922.65  1.40531
   2952.74  1.44414
   2983.15  1.48405
   3013.86  1.52509
   3044.89  1.56729
   3076.25  1.61067
   3107.92  1.65529
   3139.92  1.70116
   3172.25  1.74831
   3204.92  1.79683
   3237.92  1.84670
   3271.26  1.89796
   3304.94  1.95070
   3338.97  2.00491
   3373.35  2.06065
   3408.08  2.11797
   3443.17  2.17690
   3478.63  2.23751
   3514.45  2.29984
   3550.63  2.36393
   3587.19  2.42985
   3624.13  2.49762
   3661.44  2.56732
   3699.14  2.63900
   3737.23  2.71271
   3775.71  2.78848
   3814.59  2.86643
   3853.87  2.94660
   3893.55  3.02906
   3933.64  3.11383
   3974.14  3.20098
   4015.06  3.29066
   4056.40  3.38288
   4098.17  3.47773
   4140.37  3.57530
   4183.00  3.67564
   4226.07  3.77885
   4269.59  3.88499
   4313.55  3.99414
   4357.96  4.10641
   4402.83  4.22188
   4448.17  4.34061
   4493.97  4.46280
   4540.24  4.58853
   4586.99  4.71790
   4634.22  4.85085
   4681.94  4.98759
   4730.15  5.12830
   4778.85  5.27312
   4828.06  5.42208
   4877.77  5.57529
   4928.00  5.73292
   4978.74  5.89508
   5030.00  6.06192
   5036.95  6.08476
   5043.91  6.10769
   5050.87  6.13070
   5057.85  6.15380
   5064.83  6.17701
   5071.83  6.20029
   5078.84  6.22368
   5085.85  6.24714
   5092.88  6.27069
   5099.91  6.29434
   5106.96  6.31807
   5114.01  6.34189
   5121.07  6.36580
   5128.15  6.38980
   5135.23  6.41389
   5142.32  6.43809
   5149.43  6.46238
   5156.54  6.48677
   5163.66  6.51124
   5170.79  6.53581
   5177.94  6.56047
   5185.09  6.58522
   5192.25  6.61007
   5199.42  6.63501
   5206.60  6.66004
   5213.80  6.68517
   5221.00  6.71041
   5228.21  6.73577
   5235.43  6.76125
   5242.66  6.78680
   5249.90  6.81247
   5257.16  6.83822
   5264.42  6.86407
   5271.69  6.89003
   5278.97  6.91608
   5286.26  6.94222
   5293.56  6.96847
   5300.88  6.99482
   5308.20  7.02125
   5315.53  7.04777
   5322.87  7.07439
   5330.23  7.10112
   5337.59  7.12794
   5344.96  7.15487
   5352.34  7.18190
   5359.74  7.20903
   5367.14  7.23626
   5374.55  7.26359
   5381.98  7.29103
   5389.41  7.31858
   5396.85  7.34628
   5404.31  7.37408
   5411.77  7.40200
   5419.25  7.43002
   5426.73  7.45814
   5434.23  7.48638
   5441.74  7.51471
   5449.25  7.54317
   5456.78  7.57171
   5464.32  7.60037
   5471.87  7.62915
   5479.42  7.65804
   5486.99  7.68706
   5494.57  7.71620
   5502.16  7.74544
   5509.76  7.77481
   5517.37  7.80427
   5524.99  7.83385
   5532.62  7.86354
   5540.27  7.89334
   5547.92  7.92326
   5555.58  7.95329
   5563.26  7.98343
   5570.94  8.01369
   5578.63  8.04403
   5586.34  8.07450
   5594.06  8.10509
   5601.78  8.13578
   5609.52  8.16659
   5617.27  8.19753
   5625.03  8.22857
   5632.80  8.25975
   5640.58  8.29103
   5648.37  8.32242
   5656.17  8.35397
   5663.98  8.38570
   5671.81  8.41756
   5679.64  8.44955
   5687.49  8.48165
   5695.34  8.51387
   5703.21  8.54622
   5711.09  8.57869
   5718.98  8.61129
   5726.88  8.64400
   5734.79  8.67684
   5742.71  8.70981
   5750.64  8.74288
   5758.58  8.77606
   5766.54  8.80937
   5774.50  8.84280
   5782.48  8.87637
   5790.47  8.91006
   5798.46  8.94387
   5806.47  8.97782
   5814.49  9.01189
   5822.52  9.04608
   5830.57  9.08042
   5838.62  9.11488
   5846.69  9.14959
   5854.76  9.18443
   5862.85  9.21940
   5870.95  9.25452
   5879.06  9.28976
   5887.18  9.32513
   5895.31  9.36066
   5903.45  9.39630
   5911.61  9.43209
   5919.77  9.46800
   5927.95  9.50406
   5936.14  9.54025
   5944.34  9.57655
   5952.55  9.61299
   5960.77  9.64958
   5969.00  9.68630
   5977.25  9.72315
   5985.50  9.76016
   5993.77  9.79730
   6002.05  9.83460
   6010.34  9.87202
   6018.64  9.90958
   6026.96  9.94730
   6035.28  9.98516
   6043.62  10.0232
   6051.97  10.0614
   6060.32  10.0997
   6068.70  10.1381
   6077.08  10.1767
   6085.47  10.2155
   6093.88  10.2544
   6102.29  10.2934
   6110.72  10.3326
   6119.16  10.3720
   6127.62  10.4115
   6136.08  10.4513
   6144.56  10.4912
   6153.04  10.5312
   6161.54  10.5715
   6170.05  10.6118
   6178.58  10.6524
   6187.11  10.6931
   6195.66  10.7339
   6204.21  10.7749
   6212.78  10.8160
   6221.37  10.8574
   6229.96  10.8988
   6238.56  10.9405
   6247.18  10.9823
   6255.81  11.0243
   6264.45  11.0664
   6273.10  11.1087
   6281.77  11.1512
   6290.45  11.1938
   6299.14  11.2366
   6307.84  11.2795
   6316.55  11.3226
   6325.27  11.3659
   6334.01  11.4093
   6342.76  11.4530
   6351.52  11.4968
   6360.29  11.5408
   6369.08  11.5849
   6377.88  11.6292
   6386.69  11.6737
   6395.51  11.7184
   6404.34  11.7632
   6413.19  11.8082
   6422.05  11.8534
   6430.92  11.8987
   6439.80  11.9443
   6448.70  11.9901
   6457.60  12.0361
   6466.52  12.0822
   6475.45  12.1285
   6484.40  12.1750
   6493.36  12.2216
   6502.32  12.2685
   6511.31  12.3155
   6520.30  12.3627
   6529.31  12.4100
   6538.33  12.4576
   6547.36  12.5054
   6556.40  12.5534
   6565.46  12.6016
   6574.52  12.6499
   6583.61  12.6984
   6592.70  12.7472
   6601.81  12.7960
   6610.92  12.8451
   6620.06  12.8944
   6629.20  12.9439
   6638.36  12.9935
   6647.53  13.0435
   6656.71  13.0936
   6665.90  13.1439
   6675.11  13.1944
   6684.33  13.2451
   6693.56  13.2959
   6702.81  13.3470
   6712.07  13.3983
   6721.34  13.4498
   6730.62  13.5014
   6739.92  13.5533
   6749.23  13.6054
   6758.55  13.6577
   6767.89  13.7102
   6777.24  13.7630
   6786.60  13.8159
   6795.97  13.8691
   6805.36  13.9224
   6814.76  13.9760
   6824.17  14.0297
   6833.60  14.0837
   6843.04  14.1378
   6852.49  14.1922
   6861.95  14.2469
   6871.43  14.3018
   6880.92  14.3569
   6890.43  14.4122
   6899.95  14.4678
   6909.48  14.5235
   6919.02  14.5795
   6928.58  14.6357
   6938.15  14.6921
   6947.73  14.7487
   6957.33  14.8055
   6966.94  14.8626
   6976.56  14.9199
   6986.20  14.9775
   6995.85  15.0353
   7005.51  15.0934
   7015.19  15.1516
   7024.88  15.2101
   7034.58  15.2688
   7044.30  15.3277
   7054.03  15.3869
   7063.77  15.4463
   7073.53  15.5059
   7083.30  15.5658
   7093.08  15.6260
   7102.88  15.6863
   7112.69  15.7470
   7122.52  15.8079
   7132.35  15.8690
   7142.21  15.9303
   7152.07  15.9919
   7161.95  16.0537
   7171.84  16.1158
   7181.75  16.1781
   7191.67  16.2406
   7201.60  16.3035
   7211.55  16.3666
   7221.51  16.4300
   7231.49  16.4936
   7241.47  16.5575
   7251.48  16.6216
   7261.49  16.6860
   7271.52  16.7506
   7281.57  16.8154
   7291.62  16.8805
   7301.70  16.9459
   7311.78  17.0116
   7321.88  17.0775
   7332.00  17.1438
   7342.12  17.2103
   7352.26  17.2770
   7362.42  17.3441
   7372.59  17.4113
   7382.77  17.4789
   7392.97  17.5467
   7403.18  17.6147
   7413.41  17.6830
   7423.65  17.7516
   7433.90  17.8206
   7444.17  17.8898
   7454.45  17.9594
   7464.75  18.0291
   7475.06  18.0992
   7485.39  18.1695
   7495.72  18.2401
   7506.08  18.3111
   7516.45  18.3822
   7526.83  18.4537
   7537.23  18.5254
   7547.64  18.5973
   7558.06  18.6698
   7568.50  18.7424
   7578.96  18.8154
   7589.42  18.8886
   7599.91  18.9622
   7610.40  19.0360
   7620.92  19.1101
   7631.44  19.1845
   7641.98  19.2592
   7652.54  19.3342
   7663.11  19.4094
   7673.70  19.4850
   7684.29  19.5610
   7694.91  19.6373
   7705.54  19.7139
   7716.18  19.7908
   7726.84  19.8680
   7737.51  19.9455
   7748.20  20.0233
   7758.90  20.1014
   7769.62  20.1798
   7780.35  20.2585
   7791.10  20.3376
   7801.86  20.4170
   7812.64  20.4968
   7823.43  20.5769
   7834.23  20.6574
   7845.06  20.7381
   7855.89  20.8192
   7866.74  20.9006
   7877.61  20.9823
   7888.49  21.0643
   7899.39  21.1467
   7910.30  21.2293
   7921.22  21.3123
   7932.17  21.3958
   7943.12  21.4796
   7954.09  21.5637
   7965.08  21.6482
   7976.08  21.7330
   7987.10  21.8181
   7998.13  21.9036
   8009.18  21.9894
   8020.24  22.0755
   8031.32  22.1620
   8042.41  22.2488
   8053.52  22.3361
   8064.65  22.4237
   8075.79  22.5118
   8086.94  22.6002
   8098.11  22.6889
   8109.30  22.7780
   8120.50  22.8675
   8131.71  22.9572
   8142.95  23.0474
   8154.19  23.1379
   8165.46  23.2287
   8176.74  23.3199
   8188.03  23.4116
   8199.34  23.5038
   8210.67  23.5962
   8222.01  23.6891
   8233.36  23.7823
   8244.74  23.8758
   8256.13  23.9698
   8267.53  24.0641
   8278.95  24.1587
   8290.38  24.2538
   8301.83  24.3492
   8313.30  24.4450
   8324.79  24.5415
   8336.28  24.6383
   8347.80  24.7355
   8359.33  24.8331
   8370.88  24.9310
   8382.44  25.0294
   8394.02  25.1281
   8405.61  25.2272
   8417.22  25.3267
   8428.85  25.4266
   8440.49  25.5269
   8452.15  25.6278
   8463.82  25.7291
   8475.51  25.8309
   8487.22  25.9330
   8498.95  26.0355
   8510.68  26.1385
   8522.44  26.2418
   8534.21  26.3456
   8546.00  26.4498
   8557.80  26.5543
   8569.63  26.6593
   8581.46  26.7647
   8593.32  26.8708
   8605.19  26.9774
   8617.07  27.0843
   8628.97  27.1917
   8640.89  27.2995
   8652.83  27.4077
   8664.78  27.5164
   8676.75  27.6255
   8688.73  27.7349
   8700.74  27.8449
   8712.75  27.9553
   8724.79  28.0662
   8736.84  28.1777
   8748.91  28.2897
   8760.99  28.4021
   8773.09  28.5150
   8785.21  28.6283
   8797.35  28.7420
   8809.50  28.8562
   8821.67  28.9709
   8833.85  29.0860
   8846.05  29.2016
   8858.27  29.3176
   8870.51  29.4341
   8882.76  29.5510
   8895.03  29.6685
   8907.32  29.7864
   8919.62  29.9047
   8931.94  30.0236
   8944.28  30.1428
   8956.63  30.2626
   8969.00  30.3829
   8981.39  3.92919
   8993.80  3.94255
   9006.22  3.95595
   9018.66  3.96939
   9031.12  3.98289
   9043.59  3.99643
   9056.08  4.01001
   9068.59  4.02365
   9081.12  4.03733
   9093.66  4.05106
   9106.22  4.06483
   9118.80  4.07865
   9131.40  4.09252
   9144.01  4.10643
   9156.64  4.12041
   9169.29  4.13448
   9181.95  4.14860
   9194.64  4.16276
   9207.34  4.17698
   9220.05  4.19124
   9232.79  4.20555
   9245.54  4.21991
   9258.31  4.23432
   9271.10  4.24878
   9283.91  4.26328
   9296.73  4.27784
   9309.57  4.29251
   9322.43  4.30725
   9335.31  4.32205
   9348.20  4.33688
   9361.12  4.35177
   9374.05  4.36672
   9386.99  4.38171
   9399.96  4.39676
   9412.94  4.41186
   9425.95  4.42701
   9438.97  4.44221
   9452.00  4.45748
   9465.06  4.47286
   9478.13  4.48830
   9491.23  4.50378
   9504.34  4.51932
   9517.46  4.53492
   9530.61  4.55057
   9543.77  4.56628
   9556.96  4.58203
   9570.16  4.59784
   9583.38  4.61371
   9596.61  4.62963
   9609.87  4.64565
   9623.14  4.66176
   9636.44  4.67793
   9649.75  4.69414
   9663.08  4.71043
   9676.42  4.72676
   9689.79  4.74315
   9703.17  4.75960
   9716.58  4.77610
   9730.00  4.79266
   9743.44  4.80928
   9756.89  4.82595
   9770.37  4.84275
   9783.87  4.85960
   9797.38  4.87651
   9810.91  4.89348
   9824.47  4.91051
   9838.04  4.92760
   9851.63  4.94475
   9865.23  4.96195
   9878.86  4.97922
   9892.50  4.99655
   9906.17  5.01394
   9919.85  5.03141
   9933.55  5.04903
   9947.28  5.06671
   9961.02  5.08444
   9974.77  5.10223
   9988.55  5.12010
   10002.3  5.13802
   10016.2  5.15601
   10030.0  5.17406
   10038.1  5.18466
   10046.2  5.19529
   10054.4  5.20595
   10062.5  5.21662
   10070.7  5.22731
   10078.8  5.23804
   10087.0  5.24882
   10095.1  5.25964
   10103.3  5.27046
   10111.5  5.28131
   10119.6  5.29218
   10127.8  5.30308
   10136.0  5.31400
   10144.2  5.32494
   10152.4  5.33590
   10160.7  5.34689
   10168.9  5.35790
   10177.1  5.36893
   10185.3  5.37998
   10193.6  5.39105
   10201.8  5.40216
   10210.1  5.41328
   10218.4  5.42442
   10226.6  5.43558
   10234.9  5.44678
   10243.2  5.45802
   10251.5  5.46930
   10259.8  5.48061
   10268.1  5.49195
   10276.4  5.50330
   10284.7  5.51468
   10293.0  5.52608
   10301.4  5.53751
   10309.7  5.54896
   10318.0  5.56043
   10326.4  5.57193
   10334.7  5.58345
   10343.1  5.59500
   10351.5  5.60657
   10359.9  5.61816
   10368.2  5.62977
   10376.6  5.64142
   10385.0  5.65308
   10393.4  5.66477
   10401.8  5.67648
   10410.3  5.68826
   10418.7  5.70006
   10427.1  5.71189
   10435.6  5.72375
   10444.0  5.73563
   10452.4  5.74754
   10460.9  5.75947
   10469.4  5.77143
   10477.8  5.78341
   10486.3  5.79542
   10494.8  5.80745
   10503.3  5.81950
   10511.8  5.83158
   10520.3  5.84370
   10528.8  5.85583
   10537.3  5.86798
   10545.9  5.88016
   10554.4  5.89236
   10562.9  5.90460
   10571.5  5.91686
   10580.1  5.92918
   10588.6  5.94154
   10597.2  5.95393
   10605.8  5.96634
   10614.3  5.97878
   10622.9  5.99124
   10631.5  6.00373
   10640.1  6.01625
   10648.7  6.02879
   10657.4  6.04135
   10666.0  6.05394
   10674.6  6.06657
   10683.3  6.07921
   10691.9  6.09188
   10700.6  6.10458
   10709.2  6.11731
   10717.9  6.13006
   10726.6  6.14283
   10735.2  6.15564
   10743.9  6.16847
   10752.6  6.18138
   10761.3  6.19431
   10770.0  6.20727
   10778.7  6.22025
   10787.5  6.23327
   10796.2  6.24631
   10804.9  6.25937
   10813.7  6.27247
   10822.4  6.28560
   10831.2  6.29875
   10840.0  6.31192
   10848.7  6.32513
   10857.5  6.33836
   10866.3  6.35162
   10875.1  6.36491
   10883.9  6.37822
   10892.7  6.39157
   10901.5  6.40495
   10910.3  6.41834
   10919.2  6.43178
   10928.0  6.44528
   10936.8  6.45882
   10945.7  6.47239
   10954.5  6.48598
   10963.4  6.49960
   10972.3  6.51324
   10981.2  6.52693
   10990.0  6.54063
   10998.9  6.55437
   11007.8  6.56813
   11016.8  6.58193
   11025.7  6.59575
   11034.6  6.60960
   11043.5  6.62348
   11052.5  6.63740
   11061.4  6.65133
   11070.4  6.66530
   11079.3  6.67929
   11088.3  6.69332
   11097.3  6.70740
   11106.2  6.72154
   11115.2  6.73570
   11124.2  6.74990
   11133.2  6.76413
   11142.2  6.77839
   11151.2  6.79268
   11160.3  6.80699
   11169.3  6.82135
   11178.3  6.83573
   11187.4  6.85013
   11196.4  6.86457
   11205.5  6.87904
   11214.6  6.89355
   11223.6  6.90807
   11232.7  6.92263
   11241.8  6.93722
   11250.9  6.95185
   11260.0  6.96651
   11269.1  6.98119
   11278.3  6.99593
   11287.4  7.01072
   11296.5  7.02556
   11305.7  7.04042
   11314.8  7.05531
   11324.0  7.07024
   11333.1  7.08520
   11342.3  7.10018
   11351.5  7.11520
   11360.7  7.13025
   11369.9  7.14534
   11379.1  7.16046
   11388.3  7.17560
   11397.5  7.19078
   11406.7  7.20598
   11415.9  7.22124
   11425.2  7.23651
   11434.4  7.25181
   11443.7  7.26715
   11452.9  7.28253
   11462.2  7.29797
   11471.5  7.31345
   11480.8  7.32897
   11490.1  7.34453
   11499.4  7.36011
   11508.7  7.37572
   11518.0  7.39137
   11527.3  7.40705
   11536.6  7.42278
   11546.0  7.43853
   11555.3  7.45431
   11564.7  7.47012
   11574.0  7.48598
   11583.4  7.50186
   11592.8  7.51778
   11602.1  7.53373
   11611.5  7.54972
   11620.9  7.56574
   11630.3  7.58179
   11639.7  7.59787
   11649.2  7.61404
   11658.6  7.63026
   11668.0  7.64650
   11677.5  7.66277
   11686.9  7.67908
   11696.4  7.69544
   11705.8  7.71182
   11715.3  7.72824
   11724.8  7.74469
   11734.3  7.76118
   11743.8  7.77770
   11753.3  7.79426
   11762.8  7.81085
   11772.3  7.82747
   11781.8  7.84415
   11791.4  7.86084
   11800.9  7.87757
   11810.5  7.89434
   11820.0  7.91116
   11829.6  7.92800
   11839.2  7.94493
   11848.7  7.96189
   11858.3  7.97891
   11867.9  7.99595
   11877.5  8.01302
   11887.1  8.03014
   11896.8  8.04728
   11906.4  8.06448
   11916.0  8.08170
   11925.7  8.09896
   11935.3  8.11626
   11945.0  8.13360
   11954.6  8.15097
   11964.3  8.16838
   11974.0  8.18582
   11983.7  8.20331
   11993.4  8.22083
   12003.1  8.23838
   12012.8  8.25598
   12022.5  8.27362
   12032.3  8.29135
   12042.0  8.30910
   12051.7  8.32690
   12061.5  8.34473
   12071.3  8.36262
   12081.0  8.38052
   12090.8  8.39847
   12100.6  8.41646
   12110.4  8.43449
   12120.2  8.45256
   12130.0  8.47066
   12139.8  8.48880
   12149.6  8.50698
   12159.5  8.52521
   12169.3  8.54347
   12179.1  8.56176
   12189.0  8.58010
   12198.9  8.59848
   12208.7  8.61690
   12218.6  8.63537
   12228.5  8.65393
   12238.4  8.67253
   12248.3  8.69117
   12258.2  8.70984
   12268.1  8.72856
   12278.1  8.74731
   12288.0  8.76612
   12297.9  8.78496
   12307.9  8.80383
   12317.9  8.82275
   12327.8  8.84172
   12337.8  8.86071
   12347.8  8.87975
   12357.8  8.89883
   12367.8  8.91795
   12377.8  8.93713
   12387.8  8.95633
   12397.8  8.97557
   12407.9  8.99486
   12417.9  9.01422
   12428.0  9.03364
   12438.0  9.05310
   12448.1  9.07261
   12458.2  9.09216
   12468.2  9.11175
   12478.3  9.13138
   12488.4  9.15105
   12498.5  9.17077
   12508.6  9.19054
   12518.8  9.21033
   12528.9  9.23018
   12539.0  9.25006
   12549.2  9.27000
   12559.3  9.28997
   12569.5  9.30998
   12579.7  9.33004
   12589.9  9.35015
   12600.0  9.37029
   12610.2  9.39048
   12620.4  9.41075
   12630.7  9.43108
   12640.9  9.45147
   12651.1  9.47189
   12661.3  9.49235
   12671.6  9.51286
   12681.8  9.53343
   12692.1  9.55402
   12702.4  9.57466
   12712.7  9.59535
   12723.0  9.61609
   12733.2  9.63687
   12743.6  9.65769
   12753.9  9.67855
   12764.2  9.69946
   12774.5  9.72043
   12784.9  9.74143
   12795.2  9.76248
   12805.6  9.78357
   12815.9  9.80472
   12826.3  9.82594
   12836.7  9.84722
   12847.1  9.86855
   12857.5  9.88994
   12867.9  9.91135
   12878.3  9.93282
   12888.7  9.95433
   12899.1  9.97588
   12909.6  9.99750
   12920.0  10.0192
   12930.5  10.0409
   12940.9  10.0626
   12951.4  10.0844
   12961.9  10.1062
   12972.4  10.1281
   12982.9  10.1501
   12993.4  10.1720
   13003.9  10.1941
   13014.4  10.2162
   13024.9  10.2383
   13035.5  10.2605
   13046.0  10.2828
   13056.6  10.3052
   13067.2  10.3276
   13077.7  10.3500
   13088.3  10.3725
   13098.9  10.3950
   13109.5  10.4176
   13120.1  10.4402
   13130.7  10.4629
   13141.4  10.4857
   13152.0  10.5084
   13162.6  10.5313
   13173.3  10.5541
   13184.0  10.5771
   13194.6  10.6001
   13205.3  10.6231
   13216.0  10.6462
   13226.7  10.6693
   13237.4  10.6925
   13248.1  10.7158
   13258.8  10.7391
   13269.6  10.7625
   13280.3  10.7859
   13291.0  10.8094
   13301.8  10.8330
   13312.6  10.8565
   13323.3  10.8802
   13334.1  10.9039
   13344.9  10.9276
   13355.7  10.9514
   13366.5  10.9753
   13377.3  10.9992
   13388.2  11.0231
   13399.0  11.0471
   13409.8  11.0712
   13420.7  11.0953
   13431.5  11.1194
   13442.4  11.1437
   13453.3  11.1679
   13464.2  11.1923
   13475.1  11.2168
   13486.0  11.2413
   13496.9  11.2658
   13507.8  11.2904
   13518.8  11.3151
   13529.7  11.3398
   13540.6  11.3645
   13551.6  11.3893
   13562.6  11.4142
   13573.5  11.4391
   13584.5  11.4641
   13595.5  11.4891
   13606.5  11.5142
   13617.5  11.5394
   13628.6  11.5645
   13639.6  11.5898
   13650.6  11.6151
   13661.7  11.6405
   13672.7  11.6659
   13683.8  11.6914
   13694.9  11.7170
   13705.9  11.7427
   13717.0  11.7683
   13728.1  11.7941
   13739.2  11.8199
   13750.4  11.8458
   13761.5  11.8717
   13772.6  11.8977
   13783.8  11.9237
   13794.9  11.9498
   13806.1  11.9759
   13817.3  12.0021
   13828.4  12.0284
   13839.6  12.0547
   13850.8  12.0811
   13862.0  12.1075
   13873.3  12.1340
   13884.5  12.1606
   13895.7  12.1872
   13907.0  12.2140
   13918.2  12.2408
   13929.5  12.2676
   13940.8  12.2945
   13952.0  12.3215
   13963.3  12.3485
   13974.6  12.3756
   13985.9  12.4027
   13997.3  12.4300
   14008.6  12.4572
   14019.9  12.4845
   14031.3  12.5119
   14042.6  12.5394
   14054.0  12.5669
   14065.4  12.5944
   14076.7  12.6221
   14088.1  12.6498
   14099.5  12.6775
   14111.0  12.7053
   14122.4  12.7332
   14133.8  12.7612
   14145.2  12.7893
   14156.7  12.8174
   14168.1  12.8456
   14179.6  12.8738
   14191.1  12.9021
   14202.6  12.9305
   14214.1  12.9589
   14225.6  12.9874
   14237.1  13.0160
   14248.6  13.0446
   14260.1  13.0732
   14271.7  13.1020
   14283.2  13.1308
   14294.8  13.1597
   14306.3  13.1886
   14317.9  13.2176
   14329.5  13.2466
   14341.1  13.2758
   14352.7  13.3050
   14364.3  13.3343
   14376.0  13.3637
   14387.6  13.3931
   14399.2  13.4227
   14410.9  13.4523
   14422.5  13.4819
   14434.2  13.5116
   14445.9  13.5414
   14457.6  13.5712
   14469.3  13.6011
   14481.0  13.6311
   14492.7  13.6611
   14504.4  13.6912
   14516.2  13.7214
   14527.9  13.7516
   14539.7  13.7819
   14551.5  13.8123
   14563.2  13.8428
   14575.0  13.8733
   14586.8  13.9039
   14598.6  13.9346
   14610.4  13.9653
   14622.3  13.9962
   14634.1  14.0271
   14645.9  14.0580
   14657.8  14.0891
   14669.6  14.1202
   14681.5  14.1513
   14693.4  14.1826
   14705.3  14.2139
   14717.2  14.2453
   14729.1  14.2767
   14741.0  14.3082
   14752.9  14.3398
   14764.9  14.3714
   14776.8  14.4032
   14788.8  14.4350
   14800.8  14.4668
   14812.7  14.4988
   14824.7  14.5309
   14836.7  14.5630
   14848.7  14.5952
   14860.7  14.6275
   14872.8  14.6599
   14884.8  14.6923
   14896.9  14.7248
   14908.9  14.7574
   14921.0  14.7901
   14933.0  14.8228
   14945.1  14.8556
   14957.2  14.8885
   14969.3  14.9214
   14981.4  14.9544
   14993.6  14.9875
   15005.7  15.0207
   15017.8  15.0539
   15030.0  15.0872
   15038.6  15.1109
   15047.3  15.1346
   15055.9  15.1585
   15064.6  15.1823
   15073.2  15.2062
   15081.9  15.2301
   15090.6  15.2541
   15099.2  15.2781
   15107.9  15.3021
   15116.6  15.3262
   15125.3  15.3504
   15134.0  15.3745
   15142.6  15.3987
   15151.3  15.4229
   15160.0  15.4472
   15168.8  15.4715
   15177.5  15.4959
   15186.2  15.5203
   15194.9  15.5447
   15203.6  15.5691
   15212.4  15.5937
   15221.1  15.6182
   15229.9  15.6428
   15238.6  15.6674
   15247.4  15.6920
   15256.1  15.7167
   15264.9  15.7415
   15273.7  15.7662
   15282.4  15.7910
   15291.2  15.8159
   15300.0  15.8408
   15308.8  15.8658
   15317.6  15.8908
   15326.4  15.9159
   15335.2  15.9410
   15344.0  15.9661
   15352.8  15.9913
   15361.6  16.0165
   15370.5  16.0418
   15379.3  16.0671
   15388.1  16.0924
   15397.0  16.1178
   15405.8  16.1432
   15414.7  16.1687
   15423.5  16.1942
   15432.4  16.2197
   15441.3  16.2452
   15450.1  16.2709
   15459.0  16.2965
   15467.9  16.3222
   15476.8  16.3480
   15485.7  16.3738
   15494.6  16.3996
   15503.5  16.4254
   15512.4  16.4513
   15521.3  16.4773
   15530.2  16.5032
   15539.1  16.5293
   15548.1  16.5554
   15557.0  16.5816
   15565.9  16.6078
   15574.9  16.6340
   15583.8  16.6603
   15592.8  16.6866
   15601.7  16.7130
   15610.7  16.7394
   15619.7  16.7658
   15628.6  16.7923
   15637.6  16.8189
   15646.6  16.8454
   15655.6  16.8721
   15664.6  16.8987
   15673.6  16.9254
   15682.6  16.9522
   15691.6  16.9790
   15700.6  17.0058
   15709.6  17.0326
   15718.7  17.0596
   15727.7  17.0865
   15736.7  17.1135
   15745.8  17.1406
   15754.8  17.1676
   15763.9  17.1948
   15772.9  17.2219
   15782.0  17.2492
   15791.1  17.2764
   15800.1  17.3037
   15809.2  17.3311
   15818.3  17.3586
   15827.4  17.3860
   15836.5  17.4135
   15845.6  17.4411
   15854.7  17.4687
   15863.8  17.4964
   15872.9  17.5240
   15882.0  17.5518
   15891.1  17.5796
   15900.3  17.6074
   15909.4  17.6352
   15918.5  17.6632
   15927.7  17.6911
   15936.8  17.7191
   15946.0  17.7471
   15955.2  17.7752
   15964.3  17.8034
   15973.5  17.8315
   15982.7  17.8597
   15991.9  17.8880
   16001.0  17.9163
   16010.2  17.9447
   16019.4  17.9731
   16028.6  18.0015
   16037.8  18.0300
   16047.1  18.0585
   16056.3  18.0872
   16065.5  18.1159
   16074.7  18.1446
   16084.0  18.1733
   16093.2  18.2022
   16102.5  18.2310
   16111.7  18.2599
   16121.0  18.2889
   16130.2  18.3179
   16139.5  18.3469
   16148.8  18.3760
   16158.0  18.4051
   16167.3  18.4343
   16176.6  18.4635
   16185.9  18.4928
   16195.2  18.5222
   16204.5  18.5515
   16213.8  18.5809
   16223.1  18.6104
   16232.5  18.6399
   16241.8  18.6694
   16251.1  18.6990
   16260.5  18.7287
   16269.8  18.7584
   16279.1  18.7881
   16288.5  18.8179
   16297.9  18.8477
   16307.2  18.8776
   16316.6  18.9076
   16326.0  18.9376
   16335.3  18.9677
   16344.7  18.9979
   16354.1  19.0280
   16363.5  19.0583
   16372.9  19.0886
   16382.3  19.1189
   16391.7  19.1492
   16401.2  19.1796
   16410.6  19.2101
   16420.0  19.2407
   16429.4  19.2712
   16438.9  19.3018
   16448.3  19.3325
   16457.8  19.3632
   16467.2  19.3940
   16476.7  19.4248
   16486.2  19.4556
   16495.6  19.4865
   16505.1  19.5175
   16514.6  19.5485
   16524.1  19.5795
   16533.6  19.6106
   16543.1  19.6418
   16552.6  19.6730
   16562.1  19.7043
   16571.6  19.7356
   16581.1  19.7670
   16590.6  19.7984
   16600.2  19.8299
   16609.7  19.8615
   16619.3  19.8931
   16628.8  19.9247
   16638.4  19.9564
   16647.9  19.9882
   16657.5  20.0200
   16667.1  20.0518
   16676.6  20.0837
   16686.2  20.1157
   16695.8  20.1477
   16705.4  20.1798
   16715.0  20.2119
   16724.6  20.2440
   16734.2  20.2762
   16743.8  20.3085
   16753.4  20.3408
   16763.1  20.3731
   16772.7  20.4056
   16782.3  20.4380
   16792.0  20.4706
   16801.6  20.5031
   16811.3  20.5358
   16820.9  20.5684
   16830.6  20.6011
   16840.3  20.6340
   16849.9  20.6668
   16859.6  20.6998
   16869.3  20.7328
   16879.0  20.7658
   16888.7  20.7989
   16898.4  20.8320
   16908.1  20.8653
   16917.8  20.8985
   16927.5  20.9318
   16937.3  20.9652
   16947.0  20.9986
   16956.7  21.0321
   16966.5  21.0656
   16976.2  21.0992
   16986.0  21.1328
   16995.7  21.1665
   17005.5  21.2002
   17015.3  21.2340
   17025.0  21.2679
   17034.8  21.3017
   17044.6  21.3357
   17054.4  21.3697
   17064.2  21.4038
   17074.0  21.4379
   17083.8  21.4720
   17093.6  21.5063
   17103.5  21.5405
   17113.3  21.5749
   17123.1  21.6093
   17133.0  21.6438
   17142.8  21.6784
   17152.6  21.7130
   17162.5  21.7476
   17172.4  21.7824
   17182.2  21.8171
   17192.1  21.8519
   17202.0  21.8868
   17211.9  21.9218
   17221.7  21.9568
   17231.6  21.9918
   17241.5  22.0269
   17251.4  22.0621
   17261.4  22.0973
   17271.3  22.1325
   17281.2  22.1679
   17291.1  22.2033
   17301.1  22.2387
   17311.0  22.2742
   17320.9  22.3098
   17330.9  22.3454
   17340.9  22.3810
   17350.8  22.4168
   17360.8  22.4526
   17370.8  22.4884
   17380.7  22.5243
   17390.7  22.5603
   17400.7  22.5963
   17410.7  22.6324
   17420.7  22.6686
   17430.7  22.7049
   17440.7  22.7412
   17450.8  22.7775
   17460.8  22.8139
   17470.8  22.8504
   17480.9  22.8869
   17490.9  22.9235
   17500.9  22.9601
   17511.0  22.9969
   17521.1  23.0336
   17531.1  23.0704
   17541.2  23.1074
   17551.3  23.1443
   17561.4  23.1813
   17571.5  23.2183
   17581.6  23.2555
   17591.7  23.2926
   17601.8  23.3298
   17611.9  23.3671
   17622.0  23.4045
   17632.1  23.4419
   17642.2  23.4794
   17652.4  23.5169
   17662.5  23.5545
   17672.7  23.5922
   17682.8  23.6300
   17693.0  23.6678
   17703.1  23.7057
   17713.3  23.7437
   17723.5  23.7817
   17733.7  23.8198
   17743.9  23.8580
   17754.1  23.8961
   17764.3  23.9344
   17774.5  23.9728
   17784.7  24.0111
   17794.9  24.0496
   17805.1  24.0881
   17815.4  24.1267
   17825.6  24.1653
   17835.8  24.2040
   17846.1  24.2428
   17856.3  24.2816
   17866.6  24.3205
   17876.9  24.3594
   17887.1  24.3985
   17897.4  24.4375
   17907.7  24.4766
   17918.0  24.5158
   17928.3  24.5551
   17938.6  24.5944
   17948.9  24.6338
   17959.2  24.6733
   17969.5  24.7129
   17979.8  24.7525
   17990.2  24.7922
   18000.5  24.8320
   18010.8  24.8718
   18021.2  24.9117
   18031.5  24.9516
   18041.9  24.9916
   18052.3  25.0317
   18062.6  25.0719
   18073.0  25.1120
   18083.4  25.1523
   18093.8  25.1927
   18104.2  25.2331
   18114.6  25.2736
   18125.0  25.3141
   18135.4  25.3547
   18145.8  25.3953
   18156.2  25.4360
   18166.7  25.4769
   18177.1  25.5177
   18187.6  25.5586
   18198.0  25.5996
   18208.5  25.6407
   18218.9  25.6818
   18229.4  25.7229
   18239.9  25.7642
   18250.3  25.8056
   18260.8  25.8470
   18271.3  25.8885
   18281.8  25.9301
   18292.3  25.9717
   18302.8  26.0134
   18313.3  26.0552
   18323.9  26.0970
   18334.4  26.1389
   18344.9  26.1809
   18355.5  26.2230
   18366.0  26.2651
   18376.6  26.3072
   18387.1  26.3495
   18397.7  26.3918
   18408.3  26.4342
   18418.8  26.4766
   18429.4  26.5191
   18440.0  26.5617
   18450.6  26.6043
   18461.2  26.6471
   18471.8  26.6899
   18482.4  26.7327
   18493.0  26.7756
   18503.7  26.8186
   18514.3  26.8617
   18524.9  26.9048
   18535.6  26.9480
   18546.2  26.9913
   18556.9  27.0347
   18567.5  27.0782
   18578.2  27.1217
   18588.9  27.1653
   18599.6  27.2091
   18610.2  27.2528
   18620.9  27.2966
   18631.6  27.3405
   18642.3  27.3845
   18653.1  27.4285
   18663.8  27.4726
   18674.5  27.5168
   18685.2  27.5611
   18696.0  27.6054
   18706.7  27.6498
   18717.4  27.6943
   18728.2  27.7388
   18739.0  27.7834
   18749.7  27.8280
   18760.5  27.8728
   18771.3  27.9176
   18782.1  27.9625
   18792.9  28.0075
   18803.6  28.0525
   18814.5  28.0976
   18825.3  28.1428
   18836.1  28.1881
   18846.9  28.2334
   18857.7  28.2789
   18868.6  28.3244
   18879.4  28.3701
   18890.2  28.4158
   18901.1  28.4615
   18912.0  28.5073
   18922.8  28.5533
   18933.7  28.5992
   18944.6  28.6453
   18955.5  28.6915
   18966.4  28.7376
   18977.2  28.7839
   18988.2  28.8302
   18999.1  28.8767
   19010.0  28.9232
   19020.9  28.9698
   19031.8  29.0164
   19042.8  29.0632
   19053.7  29.1100
   19064.6  29.1568
   19075.6  29.2038
   19086.6  29.2508
   19097.5  29.2979
   19108.5  29.3451
   19119.5  29.3924
   19130.5  29.4397
   19141.5  29.4871
   19152.4  29.5346
   19163.5  29.5823
   19174.5  29.6300
   19185.5  29.6777
   19196.5  29.7256
   19207.5  29.7736
   19218.6  29.8216
   19229.6  29.8696
   19240.7  29.9178
   19251.7  29.9661
   19262.8  30.0144
   19273.8  30.0628
   19284.9  30.1113
   19296.0  30.1598
   19307.1  30.2084
   19318.2  30.2571
   19329.3  30.3060
   19340.4  30.3548
   19351.5  30.4038
   19362.6  30.4528
   19373.7  30.5019
   19384.9  30.5511
   19396.0  30.6003
   19407.1  30.6497
   19418.3  30.6991
   19429.4  30.7486
   19440.6  30.7982
   19451.8  30.8478
   19463.0  30.8976
   19474.1  30.9475
   19485.3  30.9974
   19496.5  31.0475
   19507.7  31.0976
   19518.9  31.1478
   19530.1  31.1980
   19541.4  31.2484
   19552.6  31.2989
   19563.8  31.3494
   19575.1  31.4000
   19586.3  31.4507
   19597.6  31.5014
   19608.8  31.5522
   19620.1  31.6032
   19631.4  31.6542
   19642.6  31.7053
   19653.9  31.7564
   19665.2  31.8077
   19676.5  31.8590
   19687.8  31.9104
   19699.1  31.9619
   19710.4  32.0135
   19721.8  32.0652
   19733.1  32.1169
   19744.4  32.1688
   19755.8  32.2207
   19767.1  32.2727
   19778.5  32.3248
   19789.9  32.3771
   19801.2  32.4295
   19812.6  32.4819
   19824.0  32.5344
   19835.4  32.5870
   19846.8  32.6397
   19858.2  32.6924
   19869.6  32.7453
   19881.0  32.7982
   19892.4  32.8512
   19903.8  32.9043
   19915.3  32.9575
   19926.7  33.0108
   19938.2  33.0642
   19949.6  33.1176
   19961.1  33.1711
   19972.6  33.2248
   19984.0  33.2785
   19995.5  33.3323
   20007.0  33.3862
   20018.5  33.4401
   20030.0  33.4942
   20038.9  33.5362
   20047.9  33.5783
   20056.8  33.6204
   20065.7  33.6625
   20074.7  33.7048
   20083.6  33.7470
   20092.6  33.7894
   20101.5  33.8318
   20110.5  33.8743
   20119.5  33.9168
   20128.4  33.9595
   20137.4  34.0021
   20146.4  34.0448
   20155.4  34.0876
   20164.4  34.1303
   20173.3  34.1732
   20182.3  34.2161
   20191.3  34.2591
   20200.3  34.3021
   20209.3  34.3452
   20218.3  34.3883
   20227.4  34.4315
   20236.4  34.4747
   20245.4  34.5180
   20254.4  34.5613
   20263.5  34.6048
   20272.5  34.6482
   20281.5  34.6917
   20290.6  34.7353
   20299.6  34.7789
   20308.7  34.8226
   20317.7  34.8663
   20326.8  34.9100
   20335.8  34.9539
   20344.9  34.9978
   20354.0  35.0417
   20363.0  35.0857
   20372.1  35.1298
   20381.2  35.1739
   20390.3  35.2181
   20399.4  35.2623
   20408.5  35.3065
   20417.6  35.3509
   20426.7  35.3954
   20435.8  35.4398
   20444.9  35.4844
   20454.0  35.5290
   20463.1  35.5737
   20472.2  35.6185
   20481.4  35.6632
   20490.5  35.7080
   20499.6  35.7530
   20508.8  35.7979
   20517.9  35.8429
   20527.1  35.8880
   20536.2  35.9331
   20545.4  35.9783
   20554.5  36.0236
   20563.7  36.0688
   20572.9  36.1142
   20582.0  36.1596
   20591.2  36.2050
   20600.4  36.2505
   20609.6  36.2962
   20618.8  36.3418
   20627.9  36.3874
   20637.1  36.4332
   20646.3  36.4790
   20655.5  36.5249
   20664.8  36.5708
   20674.0  36.6168
   20683.2  36.6628
   20692.4  36.7089
   20701.6  36.7551
   20710.8  36.8012
   20720.1  36.8476
   20729.3  36.8939
   20738.6  36.9402
   20747.8  36.9867
   20757.1  37.0333
   20766.3  37.0799
   20775.6  37.1266
   20784.8  37.1733
   20794.1  37.2200
   20803.4  37.2669
   20812.6  37.3138
   20821.9  37.3608
   20831.2  37.4078
   20840.5  37.4549
   20849.8  37.5020
   20859.1  37.5493
   20868.4  37.5965
   20877.7  37.6439
   20887.0  37.6912
   20896.3  37.7386
   20905.6  37.7862
   20914.9  37.8337
   20924.2  37.8813
   20933.6  37.9290
   20942.9  37.9767
   20952.2  38.0245
   20961.6  38.0724
   20970.9  38.1203
   20980.3  38.1682
   20989.6  38.2163
   20999.0  38.2644
   21008.3  38.3125
   21017.7  38.3608
   21027.1  38.4090
   21036.5  38.4574
   21045.8  38.5058
   21055.2  38.5542
   21064.6  38.6027
   21074.0  38.6514
   21083.4  38.7000
   21092.8  38.7488
   21102.2  38.7976
   21111.6  38.8465
   21121.0  38.8954
   21130.4  38.9445
   21139.8  38.9935
   21149.3  39.0426
   21158.7  39.0919
   21168.1  39.1411
   21177.6  39.1904
   21187.0  39.2398
   21196.4  39.2892
   21205.9  39.3387
   21215.3  39.3883
   21224.8  39.4379
   21234.3  39.4876
   21243.7  39.5374
   21253.2  39.5872
   21262.7  39.6370
   21272.2  39.6870
   21281.6  39.7370
   21291.1  39.7870
   21300.6  39.8372
   21310.1  39.8874
   21319.6  39.9376
   21329.1  39.9880
   21338.6  40.0383
   21348.1  40.0887
   21357.7  40.1393
   21367.2  40.1898
   21376.7  40.2404
   21386.2  40.2912
   21395.8  40.3419
   21405.3  40.3927
   21414.8  40.4436
   21424.4  40.4946
   21433.9  40.5457
   21443.5  40.5968
   21453.1  40.6480
   21462.6  40.6993
   21472.2  40.7506
   21481.8  40.8020
   21491.3  40.8535
   21500.9  40.9050
   21510.5  40.9566
   21520.1  41.0082
   21529.7  41.0600
   21539.3  41.1117
   21548.9  41.1636
   21558.5  41.2155
   21568.1  41.2675
   21577.7  41.3195
   21587.3  41.3717
   21597.0  41.4238
   21606.6  41.4760
   21616.2  41.5284
   21625.9  41.5807
   21635.5  41.6331
   21645.1  41.6857
   21654.8  41.7382
   21664.4  41.7909
   21674.1  41.8436
   21683.8  41.8963
   21693.4  41.9492
   21703.1  42.0021
   21712.8  42.0550
   21722.5  42.1081
   21732.1  42.1612
   21741.8  42.2143
   21751.5  42.2676
   21761.2  42.3209
   21770.9  42.3743
   21780.6  42.4278
   21790.3  42.4814
   21800.0  42.5350
   21809.8  42.5888
   21819.5  42.6425
   21829.2  42.6963
   21838.9  42.7503
   21848.7  42.8042
   21858.4  42.8583
   21868.2  42.9124
   21877.9  42.9666
   21887.7  43.0208
   21897.4  43.0752
   21907.2  43.1295
   21916.9  43.1840
   21926.7  43.2385
   21936.5  43.2931
   21946.3  43.3477
   21956.1  43.4025
   21965.8  43.4573
   21975.6  43.5121
   21985.4  43.5671
   21995.2  43.6221
   22005.0  43.6771
   22014.8  43.7323
   22024.7  43.7875
   22034.5  43.8428
   22044.3  43.8982
   22054.1  43.9536
   22064.0  44.0090
   22073.8  44.0646
   22083.6  44.1202
   22093.5  44.1759
   22103.3  44.2317
   22113.2  44.2876
   22123.0  44.3435
   22132.9  44.3996
   22142.8  44.4557
   22152.6  44.5118
   22162.5  44.5681
   22172.4  44.6244
   22182.3  44.6808
   22192.2  44.7373
   22202.1  44.7938
   22212.0  44.8504
   22221.9  44.9072
   22231.8  44.9639
   22241.7  45.0207
   22251.6  45.0777
   22261.5  45.1346
   22271.4  45.1916
   22281.4  45.2488
   22291.3  45.3059
   22301.2  45.3632
   22311.2  45.4206
   22321.1  45.4779
   22331.1  45.5354
   22341.0  45.5930
   22351.0  45.6506
   22360.9  45.7083
   22370.9  45.7660
   22380.9  45.8238
   22390.9  45.8818
   22400.8  45.9398
   22410.8  45.9978
   22420.8  46.0559
   22430.8  46.1141
   22440.8  46.1724
   22450.8  46.2308
   22460.8  46.2892
   22470.8  46.3477
   22480.9  46.4063
   22490.9  46.4650
   22500.9  46.5238
   22510.9  46.5827
   22521.0  46.6416
   22531.0  46.7005
   22541.1  46.7597
   22551.1  46.8188
   22561.2  46.8780
   22571.2  46.9374
   22581.3  46.9967
   22591.3  47.0561
   22601.4  47.1157
   22611.5  47.1753
   22621.6  47.2349
   22631.7  47.2947
   22641.7  47.3545
   22651.8  47.4144
   22661.9  47.4744
   22672.0  47.5345
   22682.1  47.5946
   22692.3  47.6548
   22702.4  47.7151
   22712.5  47.7754
   22722.6  47.8359
   22732.7  47.8964
   22742.9  47.9569
   22753.0  48.0176
   22763.2  48.0784
   22773.3  48.1391
   22783.5  48.2001
   22793.6  48.2610
   22803.8  48.3220
   22813.9  48.3832
   22824.1  48.4444
   22834.3  48.5056
   22844.5  48.5671
   22854.7  48.6285
   22864.8  48.6901
   22875.0  48.7518
   22885.2  48.8135
   22895.4  48.8753
   22905.6  48.9372
   22915.9  48.9991
   22926.1  49.0612
   22936.3  49.1233
   22946.5  49.1855
   22956.7  49.2477
   22967.0  49.3102
   22977.2  49.3726
   22987.5  49.4350
   22997.7  49.4977
   23008.0  49.5603
   23018.2  49.6230
   23028.5  49.6859
   23038.7  49.7488
   23049.0  49.8118
   23059.3  49.8749
   23069.6  49.9380
   23079.8  50.0012
   23090.1  50.0646
   23100.4  50.1279
   23110.7  50.1913
   23121.0  50.2549
   23131.3  50.3185
   23141.7  50.3822
   23152.0  50.4460
   23162.3  50.5099
   23172.6  50.5739
   23182.9  50.6379
   23193.3  50.7020
   23203.6  50.7662
   23214.0  50.8305
   23224.3  50.8948
   23234.7  50.9594
   23245.0  51.0239
   23255.4  51.0886
   23265.8  51.1534
   23276.1  51.2182
   23286.5  51.2830
   23296.9  51.3481
   23307.3  51.4131
   23317.7  51.4782
   23328.0  51.5435
   23338.4  51.6088
   23348.9  51.6742
   23359.3  51.7397
   23369.7  51.8053
   23380.1  51.8709
   23390.5  51.9366
   23400.9  52.0024
   23411.4  52.0683
   23421.8  52.1343
   23432.2  52.2003
   23442.7  52.2664
   23453.1  52.3327
   23463.6  52.3990
   23474.1  52.4654
   23484.5  52.5319
   23495.0  52.5984
   23505.5  52.6650
   23515.9  52.7318
   23526.4  52.7986
   23536.9  52.8655
   23547.4  52.9325
   23557.9  52.9995
   23568.4  53.0667
   23578.9  53.1339
   23589.4  53.2013
   23599.9  53.2687
   23610.5  53.3364
   23621.0  53.4040
   23631.5  53.4717
   23642.1  53.5396
   23652.6  53.6075
   23663.1  53.6754
   23673.7  53.7436
   23684.2  53.8117
   23694.8  53.8799
   23705.4  53.9483
   23715.9  54.0167
   23726.5  54.0852
   23737.1  54.1538
   23747.7  54.2225
   23758.2  54.2912
   23768.8  54.3602
   23779.4  54.4291
   23790.0  54.4981
   23800.6  54.5672
   23811.2  54.6364
   23821.9  54.7057
   23832.5  54.7751
   23843.1  54.8445
   23853.7  54.9141
   23864.4  54.9838
   23875.0  55.0535
   23885.7  55.1232
   23896.3  55.1932
   23907.0  55.2632
   23917.6  55.3332
   23928.3  55.4034
   23938.9  55.4737
   23949.6  55.5440
   23960.3  55.6145
   23971.0  55.6850
   23981.7  55.7557
   23992.3  55.8265
   24003.0  55.8974
   24013.7  55.9683
   24024.4  56.0394
   24035.2  56.1105
   24045.9  56.1818
   24056.6  56.2531
   24067.3  56.3244
   24078.0  56.3960
   24088.8  56.4675
   24099.5  56.5392
   24110.3  56.6110
   24121.0  56.6828
   24131.8  56.7547
   24142.5  56.8268
   24153.3  56.8989
   24164.0  56.9711
   24174.8  57.0435
   24185.6  57.1159
   24196.4  57.1883
   24207.2  57.2610
   24218.0  57.3336
   24228.7  57.4063
   24239.5  57.4793
   24250.4  57.5522
   24261.2  57.6252
   24272.0  57.6984
   24282.8  57.7716
   24293.6  57.8449
   24304.5  57.9183
   24315.3  57.9918
   24326.1  58.0653
   24337.0  58.1391
   24347.8  58.2128
   24358.7  58.2867
   24369.5  58.3608
   24380.4  58.4349
   24391.3  58.5091
   24402.1  58.5835
   24413.0  58.6579
   24423.9  58.7324
   24434.8  58.8071
   24445.7  58.8817
   24456.6  58.9565
   24467.5  59.0314
   24478.4  59.1064
   24489.3  59.1814
   24500.2  59.2567
   24511.1  59.3319
   24522.1  59.4072
   24533.0  59.4828
   24543.9  59.5583
   24554.9  59.6339
   24565.8  59.7097
   24576.8  59.7855
   24587.7  59.8614
   24598.7  59.9375
   24609.7  60.0136
   24620.6  60.0898
   24631.6  60.1661
   24642.6  60.2425
   24653.6  60.3190
   24664.6  60.3957
   24675.6  60.4723
   24686.6  60.5491
   24697.6  60.6261
   24708.6  60.7030
   24719.6  60.7801
   24730.6  60.8573
   24741.6  60.9346
   24752.7  61.0120
   24763.7  61.0896
   24774.7  61.1672
   24785.8  61.2449
   24796.8  61.3229
   24807.9  61.4008
   24818.9  61.4789
   24830.0  61.5570
   24841.1  61.6352
   24852.1  61.7136
   24863.2  61.7920
   24874.3  61.8705
   24885.4  61.9491
   24896.5  62.0279
   24907.6  62.1067
   24918.7  62.1857
   24929.8  62.2647
   24940.9  62.3438
   24952.0  62.4232
   24963.2  62.5024
   24974.3  62.5818
   24985.4  62.6614
   24996.6  62.7410
   25007.7  62.8207
   25018.8  62.9007
   25030.0  62.9806
   25039.1  63.0456
   25048.1  63.1107
   25057.2  63.1758
   25066.3  63.2411
   25075.4  63.3064
   25084.5  63.3718
   25093.5  63.4373
   25102.6  63.5028
   25111.7  63.5683
   25120.8  63.6340
   25129.9  63.6997
   25139.0  63.7655
   25148.1  63.8314
   25157.3  63.8974
   25166.4  63.9635
   25175.5  64.0295
   25184.6  64.0957
   25193.7  64.1620
   25202.9  64.2284
   25212.0  64.2948
   25221.1  64.3613
   25230.3  64.4277
   25239.4  64.4944
   25248.6  64.5611
   25257.7  64.6278
   25266.9  64.6946
   25276.0  64.7616
   25285.2  64.8284
   25294.3  64.8954
   25303.5  64.9625
   25312.7  65.0297
   25321.8  65.0970
   25331.0  65.1643
   25340.2  65.2315
   25349.4  65.2990
   25358.5  65.3665
   25367.7  65.4341
   25376.9  65.5018
   25386.1  65.5695
   25395.3  65.6373
   25404.5  65.7050
   25413.7  65.7730
   25422.9  65.8410
   25432.1  65.9091
   25441.4  65.9772
   25450.6  66.0454
   25459.8  66.1136
   25469.0  66.1819
   25478.2  66.2504
   25487.5  66.3189
   25496.7  66.3874
   25506.0  66.4561
   25515.2  66.5247
   25524.4  66.5934
   25533.7  66.6623
   25542.9  66.7312
   25552.2  66.8002
   25561.4  66.8693
   25570.7  66.9384
   25580.0  67.0077
   25589.2  67.0770
   25598.5  67.1464
   25607.8  67.2159
   25617.1  67.2854
   25626.3  67.3551
   25635.6  67.4246
   25644.9  67.4944
   25654.2  67.5642
   25663.5  67.6341
   25672.8  67.7041
   25682.1  67.7742
   25691.4  67.8442
   25700.7  67.9144
   25710.0  67.9846
   25719.3  68.0550
   25728.7  68.1254
   25738.0  68.1959
   25747.3  68.2663
   25756.6  68.3369
   25766.0  68.4076
   25775.3  68.4784
   25784.6  68.5493
   25794.0  68.6202
   25803.3  68.6912
   25812.7  68.7621
   25822.0  68.8333
   25831.4  68.9045
   25840.7  68.9758
   25850.1  69.0471
   25859.5  69.1185
   25868.8  69.1899
   25878.2  69.2615
   25887.6  69.3331
   25897.0  69.4049
   25906.4  69.4767
   25915.7  69.5485
   25925.1  69.6204
   25934.5  69.6924
   25943.9  69.7645
   25953.3  69.8366
   25962.7  69.9089
   25972.1  69.9812
   25981.5  70.0537
   25991.0  70.1261
   26000.4  70.1988
   26009.8  70.2715
   26019.2  70.3442
   26028.6  70.4171
   26038.1  70.4900
   26047.5  70.5629
   26056.9  70.6359
   26066.4  70.7091
   26075.8  70.7823
   26085.3  70.8556
   26094.7  70.9290
   26104.2  71.0023
   26113.6  71.0758
   26123.1  71.1494
   26132.6  71.2231
   26142.0  71.2968
   26151.5  71.3706
   26161.0  71.4444
   26170.5  71.5184
   26179.9  71.5924
   26189.4  71.6665
   26198.9  71.7407
   26208.4  71.8150
   26217.9  71.8894
   26227.4  71.9637
   26236.9  72.0382
   26246.4  72.1128
   26255.9  72.1874
   26265.4  72.2622
   26274.9  72.3370
   26284.5  72.4117
   26294.0  72.4867
   26303.5  72.5617
   26313.0  72.6369
   26322.6  72.7121
   26332.1  72.7873
   26341.7  72.8626
   26351.2  72.9380
   26360.7  73.0135
   26370.3  73.0891
   26379.9  73.1647
   26389.4  73.2405
   26399.0  73.3162
   26408.5  73.3922
   26418.1  73.4682
   26427.7  73.5443
   26437.2  73.6205
   26446.8  73.6968
   26456.4  73.7731
   26466.0  73.8494
   26475.6  73.9259
   26485.2  74.0025
   26494.8  74.0792
   26504.4  74.1559
   26514.0  74.2327
   26523.6  74.3095
   26533.2  74.3865
   26542.8  74.4635
   26552.4  74.5406
   26562.0  74.6179
   26571.7  74.6952
   26581.3  74.7724
   26590.9  74.8498
   26600.6  74.9274
   26610.2  75.0050
   26619.8  75.0827
   26629.5  75.1604
   26639.1  75.2383
   26648.8  75.3161
   26658.4  75.3941
   26668.1  75.4722
   26677.8  75.5503
   26687.4  75.6286
   26697.1  75.7069
   26706.8  75.7852
   26716.4  75.8637
   26726.1  75.9422
   26735.8  76.0209
   26745.5  76.0996
   26755.2  76.1784
   26764.9  76.2572
   26774.6  76.3362
   26784.3  76.4152
   26794.0  76.4943
   26803.7  76.5735
   26813.4  76.6528
   26823.1  76.7323
   26832.8  76.8117
   26842.5  76.8913
   26852.3  76.9710
   26862.0  77.0508
   26871.7  77.1307
   26881.5  77.2106
   26891.2  77.2905
   26901.0  77.3706
   26910.7  77.4508
   26920.5  77.5311
   26930.2  77.6114
   26940.0  77.6919
   26949.7  77.7722
   26959.5  77.8528
   26969.3  77.9335
   26979.0  78.0143
   26988.8  78.0952
   26998.6  78.1761
   27008.4  78.2571
   27018.1  78.3381
   27027.9  78.4193
   27037.7  78.5005
   27047.5  78.5819
   27057.3  78.6633
   27067.1  78.7448
   27076.9  78.8263
   27086.7  78.9080
   27096.6  78.9897
   27106.4  79.0716
   27116.2  79.1535
   27126.0  79.2355
   27135.8  79.3175
   27145.7  79.3997
   27155.5  79.4820
   27165.4  79.5643
   27175.2  79.6468
   27185.0  79.7293
   27194.9  79.8118
   27204.7  79.8945
   27214.6  79.9772
   27224.5  80.0601
   27234.3  80.1430
   27244.2  80.2261
   27254.1  80.3093
   27263.9  80.3924
   27273.8  80.4758
   27283.7  80.5592
   27293.6  80.6428
   27303.5  80.7264
   27313.4  80.8101
   27323.3  80.8938
   27333.2  80.9777
   27343.1  81.0616
   27353.0  81.1457
   27362.9  81.2299
   27372.8  81.3141
   27382.7  81.3983
   27392.6  81.4827
   27402.6  81.5671
   27412.5  81.6517
   27422.4  81.7364
   27432.3  81.8211
   27442.3  81.9060
   27452.2  81.9908
   27462.2  82.0758
   27472.1  82.1609
   27482.1  82.2461
   27492.0  82.3313
   27502.0  82.4167
   27512.0  82.5020
   27521.9  82.5875
   27531.9  82.6732
   27541.9  82.7589
   27551.9  82.8447
   27561.8  82.9305
   27571.8  83.0164
   27581.8  83.1024
   27591.8  83.1886
   27601.8  83.2748
   27611.8  83.3612
   27621.8  83.4476
   27631.8  83.5339
   27641.8  83.6205
   27651.8  83.7072
   27661.9  83.7940
   27671.9  83.8809
   27681.9  83.9678
   27691.9  84.0547
   27702.0  84.1420
   27712.0  84.2293
   27722.0  84.3167
   27732.1  84.4041
   27742.1  84.4917
   27752.2  84.5794
   27762.2  84.6670
   27772.3  84.7548
   27782.4  84.8428
   27792.4  84.9308
   27802.5  85.0189
   27812.6  85.1071
   27822.7  85.1953
   27832.7  85.2837
   27842.8  85.3721
   27852.9  85.4607
   27863.0  85.5494
   27873.1  85.6381
   27883.2  85.7270
   27893.3  85.8157
   27903.4  85.9048
   27913.5  85.9939
   27923.6  86.0831
   27933.7  86.1724
   27943.9  86.2618
   27954.0  86.3511
   27964.1  86.4407
   27974.2  86.5303
   27984.4  86.6201
   27994.5  86.7099
   28004.7  86.7999
   28014.8  86.8898
   28025.0  86.9799
   28035.1  87.0701
   28045.3  87.1604
   28055.4  87.2508
   28065.6  87.3413
   28075.8  87.4317
   28085.9  87.5224
   28096.1  87.6132
   28106.3  87.7041
   28116.5  87.7950
   28126.7  87.8861
   28136.8  87.9772
   28147.0  88.0684
   28157.2  88.1598
   28167.4  88.2513
   28177.6  88.3429
   28187.9  88.4346
   28198.1  88.5263
   28208.3  88.6181
   28218.5  88.7100
   28228.7  88.8021
   28239.0  88.8942
   28249.2  88.9865
   28259.4  89.0788
   28269.7  89.1711
   28279.9  89.2637
   28290.2  89.3563
   28300.4  89.4490
   28310.7  89.5418
   28320.9  89.6348
   28331.2  89.7278
   28341.4  89.8207
   28351.7  89.9139
   28362.0  90.0072
   28372.3  90.1006
   28382.5  90.1941
   28392.8  90.2877
   28403.1  90.3812
   28413.4  90.4750
   28423.7  90.5689
   28434.0  90.6628
   28444.3  90.7569
   28454.6  90.8511
   28464.9  90.9451
   28475.2  91.0395
   28485.5  91.1340
   28495.9  91.2285
   28506.2  91.3231
   28516.5  91.4179
   28526.8  91.5126
   28537.2  91.6075
   28547.5  91.7025
   28557.9  91.7976
   28568.2  91.8929
   28578.6  91.9882
   28588.9  92.0836
   28599.3  92.1791
   28609.6  92.2748
   28620.0  92.3706
   28630.4  92.4665
   28640.7  92.5626
   28651.1  92.6587
   28661.5  92.7547
   28671.9  92.8510
   28682.3  92.9474
   28692.7  93.0439
   28703.1  93.1406
   28713.5  93.2373
   28723.9  93.3339
   28734.3  93.4308
   28744.7  93.5278
   28755.1  93.6249
   28765.5  93.7221
   28775.9  93.8194
   28786.4  93.9168
   28796.8  94.0142
   28807.2  94.1118
   28817.7  94.2095
   28828.1  94.3073
   28838.5  94.4052
   28849.0  94.5032
   28859.4  94.6011
   28869.9  94.6993
   28880.4  94.7976
   28890.8  94.8960
   28901.3  94.9945
   28911.8  95.0931
   28922.2  95.1917
   28932.7  95.2905
   28943.2  95.3894
   28953.7  95.4884
   28964.2  95.5875
   28974.7  95.6867
   28985.2  95.7859
   28995.7  95.8853
   29006.2  95.9848
   29016.7  96.0844
   29027.2  96.1842
   29037.7  96.2840
   29048.2  96.3839
   29058.8  96.4838
   29069.3  96.5841
   29079.8  96.6844
   29090.4  96.7848
   29100.9  96.8853
   29111.4  96.9860
   29122.0  97.0865
   29132.5  97.1874
   29143.1  97.2883
   29153.6  97.3894
   29164.2  97.4905
   29174.8  97.5918
   29185.3  97.6930
   29195.9  97.7944
   29206.5  97.8960
   29217.1  97.9976
   29227.7  98.0994
   29238.3  98.2013
   29248.8  98.3031
   29259.4  98.4052
   29270.0  98.5074
   29280.7  98.6097
   29291.3  98.7121
   29301.9  98.8146
   29312.5  98.9172
   29323.1  99.0198
   29333.7  99.1226
   29344.4  99.2255
   29355.0  99.3285
   29365.6  99.4317
   29376.3  99.5349
   29386.9  99.6381
   29397.6  99.7415
   29408.2  99.8451
   29418.9  99.9488
   29429.5  100.053
   29440.2  100.156
   29450.9  100.260
   29461.5  100.364
   29472.2  100.469
   29482.9  100.573
   29493.6  100.677
   29504.2  100.782
   29514.9  100.886
   29525.6  100.991
   29536.3  101.096
   29547.0  101.201
   29557.7  101.306
   29568.4  101.411
   29579.2  101.517
   29589.9  101.622
   29600.6  101.728
   29611.3  101.833
   29622.0  101.939
   29632.8  102.045
   29643.5  102.151
   29654.3  102.257
   29665.0  102.363
   29675.7  102.469
   29686.5  102.576
   29697.3  102.682
   29708.0  102.789
   29718.8  102.896
   29729.5  103.003
   29740.3  103.110
   29751.1  103.217
   29761.9  103.324
   29772.7  103.431
   29783.4  103.539
   29794.2  103.646
   29805.0  103.754
   29815.8  103.861
   29826.6  103.969
   29837.4  104.077
   29848.2  104.185
   29859.1  104.293
   29869.9  104.402
   29880.7  104.510
   29891.5  104.619
   29902.4  104.727
   29913.2  104.836
   29924.0  104.945
   29934.9  105.054
   29945.7  105.163
   29956.6  105.272
   29967.4  105.381
   29978.3  105.491
   29989.1  105.600
   30000.0  105.710
