 Mo Density=10.22, Angle=90.deg
 Photon Energy (eV), Atten Length (microns)
   30.0000  2.269409E-02
   30.3089  2.387255E-02
   30.6210  2.457039E-02
   30.9363  2.524304E-02
   31.2548  2.587770E-02
   31.5766  2.652830E-02
   31.9018  2.703201E-02
   32.2302  2.719629E-02
   32.5621  2.714585E-02
   32.8974  2.702578E-02
   33.2361  2.690622E-02
   33.5783  2.661219E-02
   33.9241  2.620836E-02
   34.2734  2.567149E-02
   34.6263  2.514571E-02
   34.9828  2.463083E-02
   35.3430  2.412633E-02
   35.7069  2.359566E-02
   36.0746  2.301245E-02
   36.4460  2.204032E-02
   36.8213  2.100804E-02
   37.2004  2.002418E-02
   37.5835  1.908633E-02
   37.9705  1.819241E-02
   38.3614  1.734044E-02
   38.7564  1.626226E-02
   39.1555  1.502914E-02
   39.5586  1.340756E-02
   39.9660  1.197076E-02
   40.3775  1.072628E-02
   40.7932  1.002346E-02
   41.2133  9.449495E-03
   41.6376  8.908355E-03
   42.0663  8.503768E-03
   42.4995  8.163042E-03
   42.9371  7.840251E-03
   43.3792  7.667086E-03
   43.8258  7.603963E-03
   44.2771  7.591348E-03
   44.7330  7.578971E-03
   45.1936  7.566601E-03
   45.6589  7.554255E-03
   46.1291  7.555943E-03
   46.6041  7.591001E-03
   47.0839  7.636848E-03
   47.5687  7.686923E-03
   48.0585  7.737314E-03
   48.5534  7.788053E-03
   49.0533  7.838594E-03
   49.5584  7.872816E-03
   50.0687  7.903841E-03
   50.5842  7.931126E-03
   51.1050  7.958536E-03
   51.6312  7.986040E-03
   52.1629  8.013624E-03
   52.7000  8.149919E-03
   53.2426  8.327384E-03
   53.7908  8.528624E-03
   54.3447  8.737792E-03
   54.9043  8.957903E-03
   55.4696  9.240322E-03
   56.0407  9.531622E-03
   56.6178  9.832088E-03
   57.2007  1.014205E-02
   57.7897  1.052831E-02
   58.3847  1.104850E-02
   58.9859  1.167788E-02
   59.5933  1.236494E-02
   60.2069  1.309240E-02
   60.8268  1.308227E-02
   61.4531  1.450139E-02
   62.0859  1.544200E-02
   62.7251  1.533625E-02
   63.3710  1.686936E-02
   64.0235  1.751978E-02
   64.6827  1.833699E-02
   65.3487  2.032841E-02
   66.0216  2.112772E-02
   66.7014  2.226424E-02
   67.3882  2.442479E-02
   68.0821  2.652547E-02
   68.7831  2.912853E-02
   69.4913  3.164585E-02
   70.2068  3.311986E-02
   70.9297  3.620733E-02
   71.6601  3.868571E-02
   72.3979  4.128223E-02
   73.1434  4.391671E-02
   73.8965  4.659698E-02
   74.6574  4.907571E-02
   75.4261  5.300686E-02
   76.2027  5.706550E-02
   76.9874  6.186961E-02
   77.7801  6.713980E-02
   78.5809  7.293721E-02
   79.3901  7.925098E-02
   80.2075  8.567691E-02
   81.0334  9.245317E-02
   81.8677  9.915818E-02
   82.7107  0.105801
   83.5623  0.112004
   84.4228  0.118304
   85.2920  0.126794
   86.1702  0.132319
   87.0575  0.137621
   87.9539  0.143357
   88.8595  0.148592
   89.7745  0.154848
   90.6988  0.160696
   91.6327  0.165788
   92.5762  0.171836
   93.5295  0.177243
   94.4925  0.182333
   95.4655  0.186556
   96.4484  0.190572
   97.4415  0.193031
   98.4448  0.195148
   99.4585  0.196564
   100.483  0.197174
   101.517  0.198583
   102.562  0.195741
   103.619  0.194938
   104.685  0.196321
   105.763  0.195435
   106.852  0.194486
   107.953  0.195455
   109.064  0.192640
   110.187  0.193643
   111.322  0.193589
   112.468  0.193608
   113.626  0.192768
   114.796  0.190750
   115.978  0.188658
   117.172  0.187839
   118.379  0.186028
   119.597  0.184216
   120.829  0.183900
   122.073  0.187124
   123.330  0.187839
   124.600  0.186993
   125.883  0.186847
   127.179  0.183620
   128.488  0.183747
   129.811  0.185838
   131.148  0.183129
   132.498  0.183996
   133.863  0.183976
   135.241  0.184988
   136.634  0.183350
   138.040  0.183645
   139.462  0.181194
   140.898  0.184099
   142.349  0.179934
   143.814  0.178707
   145.295  0.178854
   146.791  0.177339
   148.303  0.175852
   149.830  0.175106
   151.372  0.173980
   152.931  0.173519
   154.506  0.174155
   156.096  0.173781
   157.704  0.174777
   159.328  0.175779
   160.968  0.177306
   162.626  0.177990
   164.300  0.178927
   165.992  0.179373
   167.701  0.180971
   169.428  0.179934
   171.172  0.180928
   172.935  0.182454
   174.715  0.183045
   176.514  0.185039
   178.332  0.184386
   180.168  0.185934
   182.023  0.186120
   183.897  0.185665
   185.791  0.188853
   187.704  0.184610
   189.637  0.182517
   191.589  0.183410
   193.562  0.184729
   195.555  0.186503
   197.568  0.186903
   199.603  0.188064
   201.658  0.187939
   203.734  0.189683
   205.832  0.190986
   207.952  0.192035
   210.093  0.193213
   212.256  0.194273
   214.441  0.194414
   216.650  0.195845
   218.880  0.196315
   221.134  0.197233
   223.411  0.198746
   225.711  0.198775
   228.035  0.184582
   230.383  0.183852
   232.756  0.176660
   235.152  0.172102
   237.573  0.166983
   240.020  0.154617
   242.491  0.139405
   244.988  0.126178
   247.510  0.123423
   250.059  0.118859
   252.634  0.110553
   255.235  9.898662E-02
   257.863  8.657750E-02
   260.518  7.511374E-02
   263.201  6.546490E-02
   265.911  5.816198E-02
   268.649  5.367436E-02
   271.415  5.082288E-02
   274.209  4.826149E-02
   277.033  4.680756E-02
   279.885  4.640965E-02
   282.767  4.607667E-02
   285.679  4.553118E-02
   288.620  4.498028E-02
   291.592  4.443620E-02
   294.594  4.389864E-02
   297.628  4.307560E-02
   300.692  4.231421E-02
   303.788  4.110525E-02
   306.916  4.047085E-02
   310.077  3.952551E-02
   313.269  3.903477E-02
   316.495  3.879355E-02
   319.754  3.867098E-02
   323.046  3.871286E-02
   326.372  3.925389E-02
   329.733  3.961470E-02
   333.128  3.978845E-02
   336.558  3.974410E-02
   340.024  3.981557E-02
   343.525  4.001988E-02
   347.062  4.026015E-02
   350.635  4.038692E-02
   354.246  4.037011E-02
   357.893  4.070153E-02
   361.578  4.103561E-02
   365.301  4.121124E-02
   369.063  4.138761E-02
   372.863  4.201423E-02
   376.702  4.182238E-02
   380.581  4.126628E-02
   384.499  4.092349E-02
   388.459  4.039911E-02
   392.458  3.590922E-02
   396.499  3.501562E-02
   400.582  3.937322E-02
   404.707  3.832862E-02
   408.874  3.929896E-02
   413.084  3.781540E-02
   417.337  4.182718E-02
   421.634  4.156322E-02
   425.976  4.262985E-02
   430.362  4.282071E-02
   434.793  4.285604E-02
   439.270  4.226053E-02
   443.793  4.209172E-02
   448.362  4.246534E-02
   452.979  4.382017E-02
   457.643  4.500092E-02
   462.355  4.615638E-02
   467.116  4.736235E-02
   471.926  4.829211E-02
   476.785  4.903344E-02
   481.694  4.948990E-02
   486.654  4.996152E-02
   491.665  5.082257E-02
   496.727  5.125747E-02
   501.842  5.082372E-02
   507.009  5.172519E-02
   512.230  5.117378E-02
   517.504  5.081813E-02
   522.832  5.114510E-02
   528.216  5.156303E-02
   533.655  5.350116E-02
   539.150  5.551039E-02
   544.701  5.826688E-02
   550.310  5.833052E-02
   555.976  5.970384E-02
   561.701  5.948083E-02
   567.484  6.099137E-02
   573.327  6.068151E-02
   579.231  6.404434E-02
   585.195  6.519142E-02
   591.220  6.457774E-02
   597.308  6.505664E-02
   603.458  6.596952E-02
   609.672  6.705894E-02
   615.949  6.862691E-02
   622.291  7.015901E-02
   628.699  7.132523E-02
   635.172  7.256782E-02
   641.712  7.382371E-02
   648.320  7.505187E-02
   654.995  7.641049E-02
   661.740  7.781024E-02
   668.553  7.928177E-02
   675.437  8.054435E-02
   682.392  8.182716E-02
   689.418  8.326723E-02
   696.517  8.491162E-02
   703.689  8.710666E-02
   710.934  8.900952E-02
   718.254  9.138093E-02
   725.650  9.299199E-02
   733.122  9.497979E-02
   740.670  9.674688E-02
   748.297  9.845210E-02
   756.002  0.100440
   763.786  0.102755
   771.650  0.105067
   779.596  0.108244
   787.623  0.110806
   795.733  0.113429
   803.926  0.116063
   812.204  0.118005
   820.567  0.120143
   829.016  0.122627
   837.552  0.125613
   846.176  0.128271
   854.888  0.131379
   863.691  0.134663
   872.584  0.138416
   881.569  0.141380
   890.646  0.145051
   899.816  0.147823
   909.081  0.151949
   918.442  0.155048
   927.899  0.158758
   937.453  0.162870
   947.106  0.167110
   956.858  0.171462
   966.710  0.175606
   976.664  0.179545
   986.720  0.182945
   996.880  0.186592
   1007.14  0.190484
   1017.51  0.195022
   1027.99  0.199667
   1038.58  0.204423
   1049.27  0.209294
   1060.07  0.214281
   1070.99  0.219385
   1082.02  0.224610
   1093.16  0.229961
   1104.41  0.235440
   1115.79  0.241049
   1127.27  0.246792
   1138.88  0.252672
   1150.61  0.258692
   1162.46  0.264854
   1174.42  0.271163
   1186.52  0.277623
   1198.73  0.284235
   1211.08  0.291007
   1223.55  0.297939
   1236.15  0.305036
   1248.87  0.312304
   1261.73  0.319786
   1274.72  0.327591
   1287.85  0.335619
   1301.11  0.343861
   1314.51  0.352305
   1328.04  0.360957
   1341.72  0.369822
   1355.53  0.378905
   1369.49  0.388210
   1383.59  0.397745
   1397.84  0.407512
   1412.23  0.417520
   1426.77  0.427774
   1441.46  0.438281
   1456.30  0.449047
   1471.30  0.460073
   1486.45  0.471371
   1501.75  0.482949
   1517.22  0.494809
   1532.84  0.507081
   1548.62  0.519818
   1564.57  0.532973
   1580.68  0.546477
   1596.95  0.560321
   1613.40  0.574517
   1630.01  0.589072
   1646.79  0.603996
   1663.75  0.619299
   1680.88  0.634992
   1698.19  0.651078
   1715.67  0.667572
   1733.34  0.684484
   1751.18  0.701827
   1769.22  0.719609
   1787.43  0.737840
   1805.84  0.756535
   1824.43  0.775704
   1843.22  0.795356
   1862.20  0.815507
   1881.37  0.836170
   1900.74  0.857354
   1920.31  0.879074
   1940.09  0.901344
   1960.06  0.924414
   1980.24  0.948141
   2000.63  0.972566
   2021.23  0.997614
   2042.05  1.02331
   2063.07  1.04967
   2084.31  1.07671
   2105.78  1.10444
   2127.46  1.13288
   2149.36  1.16206
   2171.49  1.19199
   2193.85  1.22269
   2216.44  1.25418
   2239.26  1.28649
   2262.32  1.31963
   2285.62  1.35362
   2309.15  1.38848
   2332.93  1.42424
   2356.95  1.46092
   2381.22  1.49855
   2405.73  1.53715
   2430.51  1.57674
   2455.53  1.61735
   2480.81  1.65901
   2506.36  1.70174
   2532.17  0.507622
   2558.24  0.520508
   2584.58  0.533720
   2611.19  0.547266
   2638.08  0.408677
   2665.24  0.418836
   2692.68  0.429247
   2720.41  0.439916
   2748.42  0.450851
   2776.72  0.462057
   2805.31  0.473541
   2834.20  0.485312
   2863.38  0.497377
   2892.86  0.448595
   2922.65  0.459904
   2952.74  0.471500
   2983.15  0.483389
   3013.86  0.495578
   3044.89  0.508073
   3076.25  0.520883
   3107.92  0.534018
   3139.92  0.547482
   3172.25  0.561285
   3204.92  0.575437
   3237.92  0.589946
   3271.26  0.604823
   3304.94  0.620140
   3338.97  0.636112
   3373.35  0.652800
   3408.08  0.669928
   3443.17  0.687502
   3478.63  0.705537
   3514.45  0.724044
   3550.63  0.743038
   3587.19  0.762529
   3624.13  0.782535
   3661.44  0.803068
   3699.14  0.824134
   3737.23  0.845753
   3775.71  0.867938
   3814.59  0.890708
   3853.87  0.914075
   3893.55  0.938056
   3933.64  0.963052
   3974.14  0.988890
   4015.06  1.01569
   4056.40  1.04322
   4098.17  1.07149
   4140.37  1.10053
   4183.00  1.13035
   4226.07  1.16099
   4269.59  1.19245
   4313.55  1.22477
   4357.96  1.25796
   4402.83  1.29205
   4448.17  1.32707
   4493.97  1.36304
   4540.24  1.39998
   4586.99  1.43792
   4634.22  1.47688
   4681.94  1.51691
   4730.15  1.55802
   4778.85  1.60024
   4828.06  1.64393
   4877.77  1.68922
   4928.00  1.73614
   4978.74  1.78442
   5030.00  1.83405
   5036.95  1.84084
   5043.91  1.84766
   5050.87  1.85450
   5057.85  1.86136
   5064.83  1.86825
   5071.83  1.87517
   5078.84  1.88211
   5085.85  1.88908
   5092.88  1.89607
   5099.91  1.90310
   5106.96  1.91014
   5114.01  1.91722
   5121.07  1.92431
   5128.15  1.93144
   5135.23  1.93859
   5142.32  1.94577
   5149.43  1.95297
   5156.54  1.96020
   5163.66  1.96746
   5170.79  1.97475
   5177.94  1.98206
   5185.09  1.98940
   5192.25  1.99677
   5199.42  2.00416
   5206.60  2.01158
   5213.80  2.01903
   5221.00  2.02650
   5228.21  2.03400
   5235.43  2.04154
   5242.66  2.04910
   5249.90  2.05668
   5257.16  2.06430
   5264.42  2.07194
   5271.69  2.07961
   5278.97  2.08731
   5286.26  2.09504
   5293.56  2.10280
   5300.88  2.11058
   5308.20  2.11840
   5315.53  2.12624
   5322.87  2.13412
   5330.23  2.14202
   5337.59  2.14995
   5344.96  2.15791
   5352.34  2.16590
   5359.74  2.17392
   5367.14  2.18197
   5374.55  2.19005
   5381.98  2.19816
   5389.41  2.20630
   5396.85  2.21446
   5404.31  2.22266
   5411.77  2.23089
   5419.25  2.23915
   5426.73  2.24744
   5434.23  2.25577
   5441.74  2.26412
   5449.25  2.27250
   5456.78  2.28091
   5464.32  2.28936
   5471.87  2.29784
   5479.42  2.30634
   5486.99  2.31488
   5494.57  2.32345
   5502.16  2.33206
   5509.76  2.34069
   5517.37  2.34936
   5524.99  2.35805
   5532.62  2.36679
   5540.27  2.37555
   5547.92  2.38434
   5555.58  2.39317
   5563.26  2.40203
   5570.94  2.41093
   5578.63  2.41985
   5586.34  2.42881
   5594.06  2.43781
   5601.78  2.44683
   5609.52  2.45589
   5617.27  2.46499
   5625.03  2.47411
   5632.80  2.48327
   5640.58  2.49247
   5648.37  2.50169
   5656.17  2.51096
   5663.98  2.52025
   5671.81  2.52958
   5679.64  2.53895
   5687.49  2.54835
   5695.34  2.55778
   5703.21  2.56726
   5711.09  2.57676
   5718.98  2.58630
   5726.88  2.59588
   5734.79  2.60549
   5742.71  2.61514
   5750.64  2.62482
   5758.58  2.63454
   5766.54  2.64429
   5774.50  2.65408
   5782.48  2.66391
   5790.47  2.67377
   5798.46  2.68367
   5806.47  2.69361
   5814.49  2.70358
   5822.52  2.71359
   5830.57  2.72364
   5838.62  2.73373
   5846.69  2.74385
   5854.76  2.75401
   5862.85  2.76420
   5870.95  2.77444
   5879.06  2.78471
   5887.18  2.79502
   5895.31  2.80537
   5903.45  2.81575
   5911.61  2.82618
   5919.77  2.83664
   5927.95  2.84714
   5936.14  2.85769
   5944.34  2.86826
   5952.55  2.87888
   5960.77  2.88954
   5969.00  2.90024
   5977.25  2.91098
   5985.50  2.92176
   5993.77  2.93257
   6002.05  2.94344
   6010.34  2.95433
   6018.64  2.96527
   6026.96  2.97625
   6035.28  2.98727
   6043.62  2.99833
   6051.97  3.00943
   6060.32  3.02057
   6068.70  3.03175
   6077.08  3.04298
   6085.47  3.05424
   6093.88  3.06555
   6102.29  3.07690
   6110.72  3.08829
   6119.16  3.09973
   6127.62  3.11120
   6136.08  3.12272
   6144.56  3.13428
   6153.04  3.14588
   6161.54  3.15753
   6170.05  3.16922
   6178.58  3.18095
   6187.11  3.19273
   6195.66  3.20455
   6204.21  3.21642
   6212.78  3.22833
   6221.37  3.24039
   6229.96  3.25249
   6238.56  3.26464
   6247.18  3.27683
   6255.81  3.28907
   6264.45  3.30135
   6273.10  3.31369
   6281.77  3.32606
   6290.45  3.33848
   6299.14  3.35095
   6307.84  3.36347
   6316.55  3.37608
   6325.27  3.38883
   6334.01  3.40161
   6342.76  3.41445
   6351.52  3.42734
   6360.29  3.44027
   6369.08  3.45326
   6377.88  3.46629
   6386.69  3.47937
   6395.51  3.49250
   6404.34  3.50568
   6413.19  3.51891
   6422.05  3.53219
   6430.92  3.54552
   6439.80  3.55890
   6448.70  3.57233
   6457.60  3.58581
   6466.52  3.59935
   6475.45  3.61293
   6484.40  3.62656
   6493.36  3.64025
   6502.32  3.65399
   6511.31  3.66778
   6520.30  3.68162
   6529.31  3.69551
   6538.33  3.70946
   6547.36  3.72346
   6556.40  3.73751
   6565.46  3.75162
   6574.52  3.76577
   6583.61  3.77998
   6592.70  3.79425
   6601.81  3.80856
   6610.92  3.82294
   6620.06  3.83736
   6629.20  3.85184
   6638.36  3.86638
   6647.53  3.88097
   6656.71  3.89562
   6665.90  3.91032
   6675.11  3.92507
   6684.33  3.93988
   6693.56  3.95475
   6702.81  3.96967
   6712.07  3.98466
   6721.34  3.99969
   6730.62  4.01479
   6739.92  4.02993
   6749.23  4.04514
   6758.55  4.06041
   6767.89  4.07573
   6777.24  4.09111
   6786.60  4.10655
   6795.97  4.12204
   6805.36  4.13759
   6814.76  4.15321
   6824.17  4.16888
   6833.60  4.18462
   6843.04  4.20041
   6852.49  4.21625
   6861.95  4.23217
   6871.43  4.24813
   6880.92  4.26416
   6890.43  4.28025
   6899.95  4.29640
   6909.48  4.31262
   6919.02  4.32889
   6928.58  4.34522
   6938.15  4.36162
   6947.73  4.37808
   6957.33  4.39460
   6966.94  4.41119
   6976.56  4.42783
   6986.20  4.44455
   6995.85  4.46132
   7005.51  4.47815
   7015.19  4.49505
   7024.88  4.51202
   7034.58  4.52904
   7044.30  4.54614
   7054.03  4.56329
   7063.77  4.58051
   7073.53  4.59780
   7083.30  4.61514
   7093.08  4.63256
   7102.88  4.65004
   7112.69  4.66758
   7122.52  4.68520
   7132.35  4.70288
   7142.21  4.72062
   7152.07  4.73844
   7161.95  4.75631
   7171.84  4.77426
   7181.75  4.79228
   7191.67  4.81036
   7201.60  4.82851
   7211.55  4.84673
   7221.51  4.86501
   7231.49  4.88337
   7241.47  4.90180
   7251.48  4.92030
   7261.49  4.93886
   7271.52  4.95749
   7281.57  4.97620
   7291.62  4.99498
   7301.70  5.01382
   7311.78  5.03275
   7321.88  5.05174
   7332.00  5.07080
   7342.12  5.08994
   7352.26  5.10914
   7362.42  5.12842
   7372.59  5.14777
   7382.77  5.16720
   7392.97  5.18670
   7403.18  5.20627
   7413.41  5.22591
   7423.65  5.24563
   7433.90  5.26542
   7444.17  5.28529
   7454.45  5.30523
   7464.75  5.32525
   7475.06  5.34534
   7485.39  5.36551
   7495.72  5.38575
   7506.08  5.40608
   7516.45  5.42647
   7526.83  5.44695
   7537.23  5.46750
   7547.64  5.48812
   7558.06  5.50884
   7568.50  5.52962
   7578.96  5.55048
   7589.42  5.57142
   7599.91  5.59244
   7610.40  5.61355
   7620.92  5.63472
   7631.44  5.65598
   7641.98  5.67732
   7652.54  5.69874
   7663.11  5.72024
   7673.70  5.74183
   7684.29  5.76349
   7694.91  5.78525
   7705.54  5.80708
   7716.18  5.82898
   7726.84  5.85098
   7737.51  5.87306
   7748.20  5.89522
   7758.90  5.91747
   7769.62  5.93979
   7780.35  5.96220
   7791.10  5.98470
   7801.86  6.00728
   7812.64  6.02994
   7823.43  6.05269
   7834.23  6.07552
   7845.06  6.09845
   7855.89  6.12145
   7866.74  6.14455
   7877.61  6.16773
   7888.49  6.19100
   7899.39  6.21436
   7910.30  6.23780
   7921.22  6.26133
   7932.17  6.28496
   7943.12  6.30867
   7954.09  6.33247
   7965.08  6.35637
   7976.08  6.38034
   7987.10  6.40442
   7998.13  6.42858
   8009.18  6.45283
   8020.24  6.47718
   8031.32  6.50162
   8042.41  6.52614
   8053.52  6.55077
   8064.65  6.57548
   8075.79  6.60030
   8086.94  6.62520
   8098.11  6.65019
   8109.30  6.67528
   8120.50  6.70047
   8131.71  6.72574
   8142.95  6.75112
   8154.19  6.77659
   8165.46  6.80216
   8176.74  6.82782
   8188.03  6.85358
   8199.34  6.87944
   8210.67  6.90540
   8222.01  6.93144
   8233.36  6.95760
   8244.74  6.98385
   8256.13  7.01021
   8267.53  7.03665
   8278.95  7.06319
   8290.38  7.08985
   8301.83  7.11659
   8313.30  7.14343
   8324.79  7.17039
   8336.28  7.19744
   8347.80  7.22458
   8359.33  7.25185
   8370.88  7.27920
   8382.44  7.30667
   8394.02  7.33423
   8405.61  7.36189
   8417.22  7.38967
   8428.85  7.41754
   8440.49  7.44552
   8452.15  7.47362
   8463.82  7.50181
   8475.51  7.53012
   8487.22  7.55852
   8498.95  7.58703
   8510.68  7.61567
   8522.44  7.64439
   8534.21  7.67323
   8546.00  7.70218
   8557.80  7.73124
   8569.63  7.76041
   8581.46  7.78968
   8593.32  7.81906
   8605.19  7.84857
   8617.07  7.87817
   8628.97  7.90788
   8640.89  7.93773
   8652.83  7.96766
   8664.78  7.99773
   8676.75  8.02790
   8688.73  8.05818
   8700.74  8.08858
   8712.75  8.11909
   8724.79  8.14971
   8736.84  8.18046
   8748.91  8.21132
   8760.99  8.24230
   8773.09  8.27339
   8785.21  8.30459
   8797.35  8.33593
   8809.50  8.36736
   8821.67  8.39892
   8833.85  8.43061
   8846.05  8.46241
   8858.27  8.49432
   8870.51  8.52637
   8882.76  8.55852
   8895.03  8.59081
   8907.32  8.62321
   8919.62  8.65573
   8931.94  8.68839
   8944.28  8.72115
   8956.63  8.75404
   8969.00  8.78707
   8981.39  8.82020
   8993.80  8.85364
   9006.22  8.88725
   9018.66  8.92099
   9031.12  8.95488
   9043.59  8.98887
   9056.08  9.02300
   9068.59  9.05727
   9081.12  9.09166
   9093.66  9.12619
   9106.22  9.16084
   9118.80  9.19562
   9131.40  9.23055
   9144.01  9.26565
   9156.64  9.30087
   9169.29  9.33626
   9181.95  9.37175
   9194.64  9.40739
   9207.34  9.44317
   9220.05  9.47907
   9232.79  9.51513
   9245.54  9.55130
   9258.31  9.58762
   9271.10  9.62409
   9283.91  9.66068
   9296.73  9.69741
   9309.57  9.73430
   9322.43  9.77131
   9335.31  9.80847
   9348.20  9.84576
   9361.12  9.88320
   9374.05  9.92079
   9386.99  9.95851
   9399.96  9.99637
   9412.94  10.0344
   9425.95  10.0725
   9438.97  10.1109
   9452.00  10.1493
   9465.06  10.1879
   9478.13  10.2266
   9491.23  10.2655
   9504.34  10.3045
   9517.46  10.3437
   9530.61  10.3830
   9543.77  10.4225
   9556.96  10.4622
   9570.16  10.5019
   9583.38  10.5419
   9596.61  10.5820
   9609.87  10.6222
   9623.14  10.6626
   9636.44  10.7031
   9649.75  10.7438
   9663.08  10.7847
   9676.42  10.8257
   9689.79  10.8669
   9703.17  10.9082
   9716.58  10.9496
   9730.00  10.9913
   9743.44  11.0331
   9756.89  11.0751
   9770.37  11.1172
   9783.87  11.1596
   9797.38  11.2020
   9810.91  11.2447
   9824.47  11.2875
   9838.04  11.3304
   9851.63  11.3736
   9865.23  11.4168
   9878.86  11.4603
   9892.50  11.5039
   9906.17  11.5477
   9919.85  11.5917
   9933.55  11.6358
   9947.28  11.6801
   9961.02  11.7246
   9974.77  11.7692
   9988.55  11.8140
   10002.3  11.8590
   10016.2  11.9042
   10030.0  11.9495
   10038.1  11.9761
   10046.2  12.0028
   10054.4  12.0296
   10062.5  12.0564
   10070.7  12.0833
   10078.8  12.1102
   10087.0  12.1372
   10095.1  12.1643
   10103.3  12.1914
   10111.5  12.2186
   10119.6  12.2459
   10127.8  12.2732
   10136.0  12.3005
   10144.2  12.3280
   10152.4  12.3554
   10160.7  12.3830
   10168.9  12.4106
   10177.1  12.4383
   10185.3  12.4660
   10193.6  12.4938
   10201.8  12.5217
   10210.1  12.5496
   10218.4  12.5776
   10226.6  12.6056
   10234.9  12.6337
   10243.2  12.6619
   10251.5  12.6901
   10259.8  12.7184
   10268.1  12.7468
   10276.4  12.7752
   10284.7  12.8037
   10293.0  12.8323
   10301.4  12.8609
   10309.7  12.8896
   10318.0  12.9183
   10326.4  12.9471
   10334.7  12.9760
   10343.1  13.0049
   10351.5  13.0339
   10359.9  13.0630
   10368.2  13.0921
   10376.6  13.1213
   10385.0  13.1505
   10393.4  13.1799
   10401.8  13.2093
   10410.3  13.2388
   10418.7  13.2683
   10427.1  13.2979
   10435.6  13.3275
   10444.0  13.3573
   10452.4  13.3871
   10460.9  13.4170
   10469.4  13.4469
   10477.8  13.4769
   10486.3  13.5070
   10494.8  13.5371
   10503.3  13.5673
   10511.8  13.5975
   10520.3  13.6279
   10528.8  13.6583
   10537.3  13.6887
   10545.9  13.7193
   10554.4  13.7499
   10562.9  13.7806
   10571.5  13.8113
   10580.1  13.8422
   10588.6  13.8731
   10597.2  13.9040
   10605.8  13.9351
   10614.3  13.9662
   10622.9  13.9973
   10631.5  14.0286
   10640.1  14.0599
   10648.7  14.0913
   10657.4  14.1227
   10666.0  14.1542
   10674.6  14.1858
   10683.3  14.2175
   10691.9  14.2492
   10700.6  14.2810
   10709.2  14.3129
   10717.9  14.3448
   10726.6  14.3768
   10735.2  14.4089
   10743.9  14.4411
   10752.6  14.4733
   10761.3  14.5056
   10770.0  14.5380
   10778.7  14.5704
   10787.5  14.6030
   10796.2  14.6356
   10804.9  14.6682
   10813.7  14.7010
   10822.4  14.7338
   10831.2  14.7667
   10840.0  14.7996
   10848.7  14.8326
   10857.5  14.8657
   10866.3  14.8989
   10875.1  14.9322
   10883.9  14.9655
   10892.7  14.9989
   10901.5  15.0324
   10910.3  15.0659
   10919.2  15.0996
   10928.0  15.1333
   10936.8  15.1671
   10945.7  15.2009
   10954.5  15.2349
   10963.4  15.2689
   10972.3  15.3029
   10981.2  15.3371
   10990.0  15.3714
   10998.9  15.4057
   11007.8  15.4401
   11016.8  15.4745
   11025.7  15.5091
   11034.6  15.5437
   11043.5  15.5784
   11052.5  15.6132
   11061.4  15.6480
   11070.4  15.6830
   11079.3  15.7180
   11088.3  15.7531
   11097.3  15.7883
   11106.2  15.8235
   11115.2  15.8589
   11124.2  15.8943
   11133.2  15.9298
   11142.2  15.9654
   11151.2  16.0010
   11160.3  16.0368
   11169.3  16.0726
   11178.3  16.1085
   11187.4  16.1445
   11196.4  16.1805
   11205.5  16.2167
   11214.6  16.2529
   11223.6  16.2892
   11232.7  16.3256
   11241.8  16.3620
   11250.9  16.3986
   11260.0  16.4352
   11269.1  16.4719
   11278.3  16.5087
   11287.4  16.5456
   11296.5  16.5825
   11305.7  16.6196
   11314.8  16.6567
   11324.0  16.6939
   11333.1  16.7312
   11342.3  16.7686
   11351.5  16.8060
   11360.7  16.8436
   11369.9  16.8812
   11379.1  16.9189
   11388.3  16.9567
   11397.5  16.9946
   11406.7  17.0325
   11415.9  17.0706
   11425.2  17.1087
   11434.4  17.1469
   11443.7  17.1852
   11452.9  17.2236
   11462.2  17.2621
   11471.5  17.3006
   11480.8  17.3393
   11490.1  17.3780
   11499.4  17.4168
   11508.7  17.4557
   11518.0  17.4947
   11527.3  17.5338
   11536.6  17.5730
   11546.0  17.6122
   11555.3  17.6515
   11564.7  17.6910
   11574.0  17.7305
   11583.4  17.7701
   11592.8  17.8098
   11602.1  17.8495
   11611.5  17.8894
   11620.9  17.9294
   11630.3  17.9694
   11639.7  18.0096
   11649.2  18.0498
   11658.6  18.0902
   11668.0  18.1306
   11677.5  18.1711
   11686.9  18.2117
   11696.4  18.2524
   11705.8  18.2931
   11715.3  18.3340
   11724.8  18.3749
   11734.3  18.4160
   11743.8  18.4571
   11753.3  18.4984
   11762.8  18.5397
   11772.3  18.5811
   11781.8  18.6226
   11791.4  18.6642
   11800.9  18.7059
   11810.5  18.7477
   11820.0  18.7896
   11829.6  18.8316
   11839.2  18.8737
   11848.7  18.9159
   11858.3  18.9582
   11867.9  19.0005
   11877.5  19.0430
   11887.1  19.0855
   11896.8  19.1281
   11906.4  19.1709
   11916.0  19.2138
   11925.7  19.2567
   11935.3  19.2997
   11945.0  19.3429
   11954.6  19.3861
   11964.3  19.4294
   11974.0  19.4728
   11983.7  19.5163
   11993.4  19.5599
   12003.1  19.6036
   12012.8  19.6474
   12022.5  19.6913
   12032.3  19.7354
   12042.0  19.7795
   12051.7  19.8237
   12061.5  19.8680
   12071.3  19.9124
   12081.0  19.9569
   12090.8  20.0015
   12100.6  20.0462
   12110.4  20.0910
   12120.2  20.1359
   12130.0  20.1809
   12139.8  20.2260
   12149.6  20.2712
   12159.5  20.3165
   12169.3  20.3619
   12179.1  20.4074
   12189.0  20.4530
   12198.9  20.4988
   12208.7  20.5446
   12218.6  20.5905
   12228.5  20.6365
   12238.4  20.6827
   12248.3  20.7289
   12258.2  20.7752
   12268.1  20.8217
   12278.1  20.8682
   12288.0  20.9149
   12297.9  20.9616
   12307.9  21.0085
   12317.9  21.0554
   12327.8  21.1025
   12337.8  21.1497
   12347.8  21.1970
   12357.8  21.2443
   12367.8  21.2918
   12377.8  21.3395
   12387.8  21.3871
   12397.8  21.4349
   12407.9  21.4829
   12417.9  21.5309
   12428.0  21.5790
   12438.0  21.6273
   12448.1  21.6756
   12458.2  21.7241
   12468.2  21.7726
   12478.3  21.8213
   12488.4  21.8701
   12498.5  21.9189
   12508.6  21.9680
   12518.8  22.0171
   12528.9  22.0663
   12539.0  22.1156
   12549.2  22.1651
   12559.3  22.2146
   12569.5  22.2642
   12579.7  22.3140
   12589.9  22.3639
   12600.0  22.4139
   12610.2  22.4640
   12620.4  22.5142
   12630.7  22.5645
   12640.9  22.6150
   12651.1  22.6655
   12661.3  22.7162
   12671.6  22.7670
   12681.8  22.8179
   12692.1  22.8689
   12702.4  22.9200
   12712.7  22.9712
   12723.0  23.0226
   12733.2  23.0741
   12743.6  23.1256
   12753.9  23.1773
   12764.2  23.2291
   12774.5  23.2811
   12784.9  23.3331
   12795.2  23.3853
   12805.6  23.4376
   12815.9  23.4900
   12826.3  23.5425
   12836.7  23.5952
   12847.1  23.6479
   12857.5  23.7008
   12867.9  23.7538
   12878.3  23.8069
   12888.7  23.8602
   12899.1  23.9135
   12909.6  23.9670
   12920.0  24.0206
   12930.5  24.0743
   12940.9  24.1281
   12951.4  24.1821
   12961.9  24.2362
   12972.4  24.2904
   12982.9  24.3447
   12993.4  24.3991
   13003.9  24.4537
   13014.4  24.5084
   13024.9  24.5632
   13035.5  24.6181
   13046.0  24.6732
   13056.6  24.7284
   13067.2  24.7836
   13077.7  24.8391
   13088.3  24.8946
   13098.9  24.9503
   13109.5  25.0061
   13120.1  25.0620
   13130.7  25.1180
   13141.4  25.1742
   13152.0  25.2305
   13162.6  25.2869
   13173.3  25.3435
   13184.0  25.4002
   13194.6  25.4569
   13205.3  25.5139
   13216.0  25.5709
   13226.7  25.6281
   13237.4  25.6855
   13248.1  25.7429
   13258.8  25.8005
   13269.6  25.8582
   13280.3  25.9160
   13291.0  25.9740
   13301.8  26.0321
   13312.6  26.0903
   13323.3  26.1487
   13334.1  26.2071
   13344.9  26.2657
   13355.7  26.3245
   13366.5  26.3834
   13377.3  26.4424
   13388.2  26.5015
   13399.0  26.5608
   13409.8  26.6202
   13420.7  26.6797
   13431.5  26.7394
   13442.4  26.7992
   13453.3  26.8591
   13464.2  26.9193
   13475.1  26.9795
   13486.0  27.0398
   13496.9  27.1003
   13507.8  27.1609
   13518.8  27.2217
   13529.7  27.2825
   13540.6  27.3436
   13551.6  27.4048
   13562.6  27.4660
   13573.5  27.5275
   13584.5  27.5890
   13595.5  27.6507
   13606.5  27.7126
   13617.5  27.7746
   13628.6  27.8367
   13639.6  27.8989
   13650.6  27.9613
   13661.7  28.0239
   13672.7  28.0865
   13683.8  28.1493
   13694.9  28.2123
   13705.9  28.2754
   13717.0  28.3386
   13728.1  28.4020
   13739.2  28.4655
   13750.4  28.5292
   13761.5  28.5930
   13772.6  28.6569
   13783.8  28.7210
   13794.9  28.7852
   13806.1  28.8496
   13817.3  28.9141
   13828.4  28.9787
   13839.6  29.0435
   13850.8  29.1085
   13862.0  29.1736
   13873.3  29.2389
   13884.5  29.3043
   13895.7  29.3699
   13907.0  29.4356
   13918.2  29.5014
   13929.5  29.5674
   13940.8  29.6336
   13952.0  29.6999
   13963.3  29.7664
   13974.6  29.8329
   13985.9  29.8997
   13997.3  29.9666
   14008.6  30.0337
   14019.9  30.1008
   14031.3  30.1682
   14042.6  30.2357
   14054.0  30.3033
   14065.4  30.3711
   14076.7  30.4391
   14088.1  30.5072
   14099.5  30.5754
   14111.0  30.6438
   14122.4  30.7123
   14133.8  30.7810
   14145.2  30.8499
   14156.7  30.9188
   14168.1  30.9880
   14179.6  31.0573
   14191.1  31.1268
   14202.6  31.1964
   14214.1  31.2661
   14225.6  31.3360
   14237.1  31.4062
   14248.6  31.4764
   14260.1  31.5468
   14271.7  31.6173
   14283.2  31.6880
   14294.8  31.7589
   14306.3  31.8299
   14317.9  31.9011
   14329.5  31.9725
   14341.1  32.0440
   14352.7  32.1157
   14364.3  32.1876
   14376.0  32.2596
   14387.6  32.3317
   14399.2  32.4041
   14410.9  32.4766
   14422.5  32.5492
   14434.2  32.6220
   14445.9  32.6951
   14457.6  32.7682
   14469.3  32.8415
   14481.0  32.9150
   14492.7  32.9886
   14504.4  33.0624
   14516.2  33.1364
   14527.9  33.2105
   14539.7  33.2848
   14551.5  33.3593
   14563.2  33.4339
   14575.0  33.5087
   14586.8  33.5836
   14598.6  33.6588
   14610.4  33.7341
   14622.3  33.8095
   14634.1  33.8851
   14645.9  33.9610
   14657.8  34.0370
   14669.6  34.1131
   14681.5  34.1894
   14693.4  34.2659
   14705.3  34.3425
   14717.2  34.4194
   14729.1  34.4963
   14741.0  34.5735
   14752.9  34.6509
   14764.9  34.7284
   14776.8  34.8060
   14788.8  34.8839
   14800.8  34.9620
   14812.7  35.0402
   14824.7  35.1186
   14836.7  35.1971
   14848.7  35.2758
   14860.7  35.3548
   14872.8  35.4339
   14884.8  35.5131
   14896.9  35.5926
   14908.9  35.6722
   14921.0  35.7520
   14933.0  35.8320
   14945.1  35.9121
   14957.2  35.9925
   14969.3  36.0730
   14981.4  36.1537
   14993.6  36.2346
   15005.7  36.3156
   15017.8  36.3969
   15030.0  36.4783
   15038.6  36.5363
   15047.3  36.5943
   15055.9  36.6525
   15064.6  36.7107
   15073.2  36.7690
   15081.9  36.8274
   15090.6  36.8859
   15099.2  36.9445
   15107.9  37.0031
   15116.6  37.0620
   15125.3  37.1208
   15134.0  37.1798
   15142.6  37.2388
   15151.3  37.2980
   15160.0  37.3572
   15168.8  37.4165
   15177.5  37.4759
   15186.2  37.5355
   15194.9  37.5951
   15203.6  37.6548
   15212.4  37.7147
   15221.1  37.7746
   15229.9  37.8345
   15238.6  37.8946
   15247.4  37.9548
   15256.1  38.0151
   15264.9  38.0755
   15273.7  38.1359
   15282.4  38.1965
   15291.2  38.2572
   15300.0  38.3179
   15308.8  38.3788
   15317.6  38.4398
   15326.4  38.5008
   15335.2  38.5619
   15344.0  38.6231
   15352.8  38.6845
   15361.6  38.7459
   15370.5  38.8075
   15379.3  38.8691
   15388.1  38.9308
   15397.0  38.9926
   15405.8  39.0546
   15414.7  39.1166
   15423.5  39.1787
   15432.4  39.2409
   15441.3  39.3032
   15450.1  39.3657
   15459.0  39.4282
   15467.9  39.4908
   15476.8  39.5535
   15485.7  39.6163
   15494.6  39.6792
   15503.5  39.7422
   15512.4  39.8054
   15521.3  39.8686
   15530.2  39.9319
   15539.1  39.9953
   15548.1  40.0589
   15557.0  40.1225
   15565.9  40.1863
   15574.9  40.2501
   15583.8  40.3141
   15592.8  40.3781
   15601.7  40.4422
   15610.7  40.5064
   15619.7  40.5708
   15628.6  40.6353
   15637.6  40.6998
   15646.6  40.7645
   15655.6  40.8292
   15664.6  40.8941
   15673.6  40.9590
   15682.6  41.0241
   15691.6  41.0893
   15700.6  41.1545
   15709.6  41.2199
   15718.7  41.2854
   15727.7  41.3509
   15736.7  41.4166
   15745.8  41.4824
   15754.8  41.5483
   15763.9  41.6143
   15772.9  41.6803
   15782.0  41.7466
   15791.1  41.8129
   15800.1  41.8793
   15809.2  41.9457
   15818.3  42.0124
   15827.4  42.0791
   15836.5  42.1459
   15845.6  42.2128
   15854.7  42.2799
   15863.8  42.3470
   15872.9  42.4142
   15882.0  42.4816
   15891.1  42.5491
   15900.3  42.6166
   15909.4  42.6843
   15918.5  42.7521
   15927.7  42.8200
   15936.8  42.8880
   15946.0  42.9561
   15955.2  43.0243
   15964.3  43.0926
   15973.5  43.1610
   15982.7  43.2295
   15991.9  43.2982
   16001.0  43.3670
   16010.2  43.4358
   16019.4  43.5048
   16028.6  43.5739
   16037.8  43.6431
   16047.1  43.7125
   16056.3  43.7820
   16065.5  43.8515
   16074.7  43.9211
   16084.0  43.9909
   16093.2  44.0608
   16102.5  44.1308
   16111.7  44.2009
   16121.0  44.2711
   16130.2  44.3414
   16139.5  44.4119
   16148.8  44.4824
   16158.0  44.5530
   16167.3  44.6238
   16176.6  44.6947
   16185.9  44.7657
   16195.2  44.8368
   16204.5  44.9080
   16213.8  44.9793
   16223.1  45.0508
   16232.5  45.1224
   16241.8  45.1940
   16251.1  45.2658
   16260.5  45.3377
   16269.8  45.4097
   16279.1  45.4819
   16288.5  45.5541
   16297.9  45.6264
   16307.2  45.6990
   16316.6  45.7715
   16326.0  45.8442
   16335.3  45.9171
   16344.7  45.9900
   16354.1  46.0631
   16363.5  46.1362
   16372.9  46.2095
   16382.3  46.2829
   16391.7  46.3564
   16401.2  46.4300
   16410.6  46.5038
   16420.0  46.5777
   16429.4  46.6516
   16438.9  46.7258
   16448.3  46.8000
   16457.8  46.8743
   16467.2  46.9487
   16476.7  47.0234
   16486.2  47.0980
   16495.6  47.1728
   16505.1  47.2477
   16514.6  47.3228
   16524.1  47.3980
   16533.6  47.4732
   16543.1  47.5486
   16552.6  47.6242
   16562.1  47.6998
   16571.6  47.7756
   16581.1  47.8514
   16590.6  47.9275
   16600.2  48.0036
   16609.7  48.0798
   16619.3  48.1562
   16628.8  48.2327
   16638.4  48.3093
   16647.9  48.3860
   16657.5  48.4629
   16667.1  48.5399
   16676.6  48.6169
   16686.2  48.6941
   16695.8  48.7715
   16705.4  48.8489
   16715.0  48.9265
   16724.6  49.0043
   16734.2  49.0821
   16743.8  49.1600
   16753.4  49.2380
   16763.1  49.3162
   16772.7  49.3946
   16782.3  49.4730
   16792.0  49.5516
   16801.6  49.6303
   16811.3  49.7091
   16820.9  49.7881
   16830.6  49.8671
   16840.3  49.9464
   16849.9  50.0257
   16859.6  50.1052
   16869.3  50.1848
   16879.0  50.2645
   16888.7  50.3443
   16898.4  50.4243
   16908.1  50.5044
   16917.8  50.5846
   16927.5  50.6649
   16937.3  50.7454
   16947.0  50.8260
   16956.7  50.9067
   16966.5  50.9876
   16976.2  51.0685
   16986.0  51.1497
   16995.7  51.2309
   17005.5  51.3122
   17015.3  51.3937
   17025.0  51.4754
   17034.8  51.5571
   17044.6  51.6390
   17054.4  51.7210
   17064.2  51.8032
   17074.0  51.8854
   17083.8  51.9678
   17093.6  52.0504
   17103.5  52.1330
   17113.3  52.2158
   17123.1  52.2987
   17133.0  52.3818
   17142.8  52.4650
   17152.6  52.5482
   17162.5  52.6317
   17172.4  52.7153
   17182.2  52.7990
   17192.1  52.8828
   17202.0  52.9669
   17211.9  53.0509
   17221.7  53.1351
   17231.6  53.2195
   17241.5  53.3041
   17251.4  53.3887
   17261.4  53.4734
   17271.3  53.5583
   17281.2  53.6434
   17291.1  53.7286
   17301.1  53.8139
   17311.0  53.8993
   17320.9  53.9849
   17330.9  54.0706
   17340.9  54.1564
   17350.8  54.2425
   17360.8  54.3286
   17370.8  54.4149
   17380.7  54.5014
   17390.7  54.5880
   17400.7  54.6747
   17410.7  54.7615
   17420.7  54.8485
   17430.7  54.9357
   17440.7  55.0229
   17450.8  55.1103
   17460.8  55.1978
   17470.8  55.2856
   17480.9  55.3734
   17490.9  55.4613
   17500.9  55.5494
   17511.0  55.6377
   17521.1  55.7260
   17531.1  55.8145
   17541.2  55.9032
   17551.3  55.9920
   17561.4  56.0809
   17571.5  56.1699
   17581.6  56.2592
   17591.7  56.3486
   17601.8  56.4380
   17611.9  56.5276
   17622.0  56.6175
   17632.1  56.7074
   17642.2  56.7974
   17652.4  56.8877
   17662.5  56.9781
   17672.7  57.0686
   17682.8  57.1592
   17693.0  57.2500
   17703.1  57.3410
   17713.3  57.4320
   17723.5  57.5232
   17733.7  57.6146
   17743.9  57.7061
   17754.1  57.7978
   17764.3  57.8895
   17774.5  57.9815
   17784.7  58.0736
   17794.9  58.1658
   17805.1  58.2582
   17815.4  58.3508
   17825.6  58.4434
   17835.8  58.5362
   17846.1  58.6292
   17856.3  58.7223
   17866.6  58.8156
   17876.9  58.9089
   17887.1  59.0026
   17897.4  59.0962
   17907.7  59.1901
   17918.0  59.2840
   17928.3  59.3782
   17938.6  59.4725
   17948.9  59.5669
   17959.2  59.6615
   17969.5  59.7563
   17979.8  59.8512
   17990.2  59.9462
   18000.5  60.0415
   18010.8  60.1368
   18021.2  60.2322
   18031.5  60.3279
   18041.9  60.4237
   18052.3  60.5196
   18062.6  60.6157
   18073.0  60.7119
   18083.4  60.8084
   18093.8  60.9049
   18104.2  61.0016
   18114.6  61.0985
   18125.0  61.1955
   18135.4  61.2926
   18145.8  61.3899
   18156.2  61.4874
   18166.7  61.5851
   18177.1  61.6828
   18187.6  61.7807
   18198.0  61.8789
   18208.5  61.9771
   18218.9  62.0755
   18229.4  62.1741
   18239.9  62.2729
   18250.3  62.3718
   18260.8  62.4708
   18271.3  62.5701
   18281.8  62.6695
   18292.3  62.7690
   18302.8  62.8686
   18313.3  62.9686
   18323.9  63.0686
   18334.4  63.1687
   18344.9  63.2690
   18355.5  63.3695
   18366.0  63.4701
   18376.6  63.5709
   18387.1  63.6718
   18397.7  63.7730
   18408.3  63.8743
   18418.8  63.9757
   18429.4  64.0772
   18440.0  64.1791
   18450.6  64.2810
   18461.2  64.3830
   18471.8  64.4853
   18482.4  64.5877
   18493.0  64.6902
   18503.7  64.7929
   18514.3  64.8959
   18524.9  64.9990
   18535.6  65.1022
   18546.2  65.2056
   18556.9  65.3092
   18567.5  65.4129
   18578.2  65.5168
   18588.9  65.6209
   18599.6  65.7252
   18610.2  65.8295
   18620.9  65.9341
   18631.6  66.0388
   18642.3  66.1437
   18653.1  66.2487
   18663.8  66.3539
   18674.5  66.4594
   18685.2  66.5649
   18696.0  66.6706
   18706.7  66.7764
   18717.4  66.8826
   18728.2  66.9888
   18739.0  67.0951
   18749.7  67.2016
   18760.5  67.3084
   18771.3  67.4153
   18782.1  67.5223
   18792.9  67.6296
   18803.6  67.7370
   18814.5  67.8446
   18825.3  67.9523
   18836.1  68.0603
   18846.9  68.1684
   18857.7  68.2766
   18868.6  68.3850
   18879.4  68.4937
   18890.2  68.6024
   18901.1  68.7114
   18912.0  68.8204
   18922.8  68.9298
   18933.7  69.0393
   18944.6  69.1489
   18955.5  69.2588
   18966.4  69.3687
   18977.2  69.4788
   18988.2  69.5891
   18999.1  69.6997
   19010.0  69.8104
   19020.9  69.9212
   19031.8  70.0322
   19042.8  70.1435
   19053.7  70.2548
   19064.6  70.3663
   19075.6  70.4780
   19086.6  70.5900
   19097.5  70.7021
   19108.5  70.8143
   19119.5  70.9268
   19130.5  71.0394
   19141.5  71.1522
   19152.4  71.2651
   19163.5  71.3784
   19174.5  71.4917
   19185.5  71.6052
   19196.5  71.7188
   19207.5  71.8328
   19218.6  71.9468
   19229.6  72.0610
   19240.7  72.1754
   19251.7  72.2900
   19262.8  72.4048
   19273.8  72.5197
   19284.9  72.6349
   19296.0  72.7502
   19307.1  72.8656
   19318.2  72.9813
   19329.3  73.0972
   19340.4  73.2132
   19351.5  73.3294
   19362.6  73.4458
   19373.7  73.5624
   19384.9  73.6792
   19396.0  73.7961
   19407.1  73.9132
   19418.3  74.0307
   19429.4  74.1482
   19440.6  74.2659
   19451.8  74.3838
   19463.0  74.5021
   19474.1  74.6204
   19485.3  74.7388
   19496.5  74.8576
   19507.7  74.9764
   19518.9  75.0955
   19530.1  75.2147
   19541.4  75.3342
   19552.6  75.4538
   19563.8  75.5736
   19575.1  75.6936
   19586.3  75.8139
   19597.6  75.9342
   19608.8  76.0547
   19620.1  76.1754
   19631.4  76.2965
   19642.6  76.4176
   19653.9  76.5389
   19665.2  76.6605
   19676.5  76.7822
   19687.8  76.9041
   19699.1  77.0261
   19710.4  77.1485
   19721.8  77.2709
   19733.1  77.3935
   19744.4  77.5164
   19755.8  77.6395
   19767.1  77.7627
   19778.5  77.8861
   19789.9  78.0097
   19801.2  78.1336
   19812.6  78.2576
   19824.0  78.3818
   19835.4  78.5063
   19846.8  78.6308
   19858.2  78.7556
   19869.6  78.8806
   19881.0  79.0058
   19892.4  79.1312
   19903.8  79.2567
   19915.3  79.3825
   19926.7  79.5085
   19938.2  79.6347
   19949.6  79.7610
   19961.1  79.8875
   19972.6  80.0144
   19984.0  80.1413
   19995.5  80.2685
   20007.0  12.0067
   20018.5  12.0244
   20030.0  12.0422
   20038.9  12.0560
   20047.9  12.0698
   20056.8  12.0837
   20065.7  12.0975
   20074.7  12.1114
   20083.6  12.1253
   20092.6  12.1391
   20101.5  12.1531
   20110.5  12.1670
   20119.5  12.1809
   20128.4  12.1949
   20137.4  12.2088
   20146.4  12.2228
   20155.4  12.2368
   20164.4  12.2509
   20173.3  12.2649
   20182.3  12.2789
   20191.3  12.2930
   20200.3  12.3071
   20209.3  12.3212
   20218.3  12.3353
   20227.4  12.3494
   20236.4  12.3636
   20245.4  12.3777
   20254.4  12.3919
   20263.5  12.4061
   20272.5  12.4203
   20281.5  12.4346
   20290.6  12.4488
   20299.6  12.4631
   20308.7  12.4774
   20317.7  12.4917
   20326.8  12.5060
   20335.8  12.5203
   20344.9  12.5346
   20354.0  12.5490
   20363.0  12.5634
   20372.1  12.5778
   20381.2  12.5923
   20390.3  12.6067
   20399.4  12.6212
   20408.5  12.6357
   20417.6  12.6503
   20426.7  12.6648
   20435.8  12.6794
   20444.9  12.6940
   20454.0  12.7086
   20463.1  12.7232
   20472.2  12.7378
   20481.4  12.7524
   20490.5  12.7671
   20499.6  12.7818
   20508.8  12.7965
   20517.9  12.8112
   20527.1  12.8259
   20536.2  12.8407
   20545.4  12.8554
   20554.5  12.8702
   20563.7  12.8850
   20572.9  12.8998
   20582.0  12.9147
   20591.2  12.9295
   20600.4  12.9444
   20609.6  12.9593
   20618.8  12.9742
   20627.9  12.9891
   20637.1  13.0040
   20646.3  13.0190
   20655.5  13.0339
   20664.8  13.0489
   20674.0  13.0639
   20683.2  13.0789
   20692.4  13.0940
   20701.6  13.1091
   20710.8  13.1242
   20720.1  13.1393
   20729.3  13.1545
   20738.6  13.1697
   20747.8  13.1849
   20757.1  13.2001
   20766.3  13.2153
   20775.6  13.2305
   20784.8  13.2458
   20794.1  13.2611
   20803.4  13.2764
   20812.6  13.2917
   20821.9  13.3070
   20831.2  13.3224
   20840.5  13.3378
   20849.8  13.3531
   20859.1  13.3686
   20868.4  13.3840
   20877.7  13.3994
   20887.0  13.4149
   20896.3  13.4303
   20905.6  13.4459
   20914.9  13.4614
   20924.2  13.4769
   20933.6  13.4924
   20942.9  13.5080
   20952.2  13.5236
   20961.6  13.5392
   20970.9  13.5548
   20980.3  13.5704
   20989.6  13.5861
   20999.0  13.6018
   21008.3  13.6175
   21017.7  13.6332
   21027.1  13.6489
   21036.5  13.6647
   21045.8  13.6805
   21055.2  13.6963
   21064.6  13.7122
   21074.0  13.7281
   21083.4  13.7439
   21092.8  13.7598
   21102.2  13.7758
   21111.6  13.7917
   21121.0  13.8077
   21130.4  13.8237
   21139.8  13.8397
   21149.3  13.8557
   21158.7  13.8717
   21168.1  13.8878
   21177.6  13.9038
   21187.0  13.9200
   21196.4  13.9361
   21205.9  13.9522
   21215.3  13.9683
   21224.8  13.9845
   21234.3  14.0007
   21243.7  14.0169
   21253.2  14.0331
   21262.7  14.0493
   21272.2  14.0656
   21281.6  14.0819
   21291.1  14.0982
   21300.6  14.1145
   21310.1  14.1308
   21319.6  14.1472
   21329.1  14.1636
   21338.6  14.1800
   21348.1  14.1964
   21357.7  14.2128
   21367.2  14.2293
   21376.7  14.2458
   21386.2  14.2623
   21395.8  14.2789
   21405.3  14.2954
   21414.8  14.3120
   21424.4  14.3286
   21433.9  14.3453
   21443.5  14.3619
   21453.1  14.3786
   21462.6  14.3953
   21472.2  14.4120
   21481.8  14.4287
   21491.3  14.4455
   21500.9  14.4623
   21510.5  14.4790
   21520.1  14.4958
   21529.7  14.5127
   21539.3  14.5295
   21548.9  14.5464
   21558.5  14.5633
   21568.1  14.5802
   21577.7  14.5971
   21587.3  14.6140
   21597.0  14.6310
   21606.6  14.6480
   21616.2  14.6650
   21625.9  14.6820
   21635.5  14.6990
   21645.1  14.7161
   21654.8  14.7332
   21664.4  14.7503
   21674.1  14.7674
   21683.8  14.7846
   21693.4  14.8017
   21703.1  14.8189
   21712.8  14.8361
   21722.5  14.8534
   21732.1  14.8707
   21741.8  14.8880
   21751.5  14.9053
   21761.2  14.9227
   21770.9  14.9401
   21780.6  14.9575
   21790.3  14.9749
   21800.0  14.9923
   21809.8  15.0098
   21819.5  15.0273
   21829.2  15.0447
   21838.9  15.0623
   21848.7  15.0798
   21858.4  15.0974
   21868.2  15.1150
   21877.9  15.1326
   21887.7  15.1502
   21897.4  15.1678
   21907.2  15.1855
   21916.9  15.2032
   21926.7  15.2209
   21936.5  15.2386
   21946.3  15.2563
   21956.1  15.2741
   21965.8  15.2919
   21975.6  15.3097
   21985.4  15.3275
   21995.2  15.3454
   22005.0  15.3632
   22014.8  15.3811
   22024.7  15.3990
   22034.5  15.4170
   22044.3  15.4349
   22054.1  15.4529
   22064.0  15.4709
   22073.8  15.4889
   22083.6  15.5070
   22093.5  15.5251
   22103.3  15.5433
   22113.2  15.5614
   22123.0  15.5796
   22132.9  15.5978
   22142.8  15.6160
   22152.6  15.6342
   22162.5  15.6525
   22172.4  15.6708
   22182.3  15.6891
   22192.2  15.7074
   22202.1  15.7257
   22212.0  15.7441
   22221.9  15.7625
   22231.8  15.7809
   22241.7  15.7993
   22251.6  15.8178
   22261.5  15.8362
   22271.4  15.8547
   22281.4  15.8733
   22291.3  15.8918
   22301.2  15.9103
   22311.2  15.9289
   22321.1  15.9475
   22331.1  15.9661
   22341.0  15.9848
   22351.0  16.0035
   22360.9  16.0222
   22370.9  16.0409
   22380.9  16.0596
   22390.9  16.0784
   22400.8  16.0971
   22410.8  16.1159
   22420.8  16.1347
   22430.8  16.1536
   22440.8  16.1725
   22450.8  16.1915
   22460.8  16.2104
   22470.8  16.2294
   22480.9  16.2485
   22490.9  16.2675
   22500.9  16.2865
   22510.9  16.3056
   22521.0  16.3247
   22531.0  16.3438
   22541.1  16.3630
   22551.1  16.3821
   22561.2  16.4013
   22571.2  16.4205
   22581.3  16.4397
   22591.3  16.4590
   22601.4  16.4783
   22611.5  16.4976
   22621.6  16.5169
   22631.7  16.5362
   22641.7  16.5556
   22651.8  16.5750
   22661.9  16.5944
   22672.0  16.6138
   22682.1  16.6333
   22692.3  16.6528
   22702.4  16.6723
   22712.5  16.6918
   22722.6  16.7113
   22732.7  16.7309
   22742.9  16.7505
   22753.0  16.7701
   22763.2  16.7898
   22773.3  16.8094
   22783.5  16.8291
   22793.6  16.8488
   22803.8  16.8686
   22813.9  16.8884
   22824.1  16.9083
   22834.3  16.9281
   22844.5  16.9480
   22854.7  16.9679
   22864.8  16.9878
   22875.0  17.0078
   22885.2  17.0277
   22895.4  17.0477
   22905.6  17.0678
   22915.9  17.0878
   22926.1  17.1079
   22936.3  17.1280
   22946.5  17.1481
   22956.7  17.1682
   22967.0  17.1884
   22977.2  17.2085
   22987.5  17.2287
   22997.7  17.2490
   23008.0  17.2692
   23018.2  17.2895
   23028.5  17.3098
   23038.7  17.3301
   23049.0  17.3505
   23059.3  17.3709
   23069.6  17.3913
   23079.8  17.4117
   23090.1  17.4321
   23100.4  17.4526
   23110.7  17.4731
   23121.0  17.4936
   23131.3  17.5141
   23141.7  17.5347
   23152.0  17.5553
   23162.3  17.5759
   23172.6  17.5967
   23182.9  17.6174
   23193.3  17.6381
   23203.6  17.6589
   23214.0  17.6797
   23224.3  17.7005
   23234.7  17.7213
   23245.0  17.7422
   23255.4  17.7631
   23265.8  17.7840
   23276.1  17.8049
   23286.5  17.8259
   23296.9  17.8469
   23307.3  17.8679
   23317.7  17.8889
   23328.0  17.9100
   23338.4  17.9311
   23348.9  17.9522
   23359.3  17.9734
   23369.7  17.9945
   23380.1  18.0157
   23390.5  18.0369
   23400.9  18.0581
   23411.4  18.0794
   23421.8  18.1007
   23432.2  18.1220
   23442.7  18.1433
   23453.1  18.1647
   23463.6  18.1861
   23474.1  18.2075
   23484.5  18.2290
   23495.0  18.2504
   23505.5  18.2719
   23515.9  18.2934
   23526.4  18.3149
   23536.9  18.3365
   23547.4  18.3582
   23557.9  18.3799
   23568.4  18.4015
   23578.9  18.4233
   23589.4  18.4450
   23599.9  18.4668
   23610.5  18.4886
   23621.0  18.5104
   23631.5  18.5323
   23642.1  18.5542
   23652.6  18.5760
   23663.1  18.5980
   23673.7  18.6199
   23684.2  18.6419
   23694.8  18.6639
   23705.4  18.6859
   23715.9  18.7080
   23726.5  18.7301
   23737.1  18.7522
   23747.7  18.7743
   23758.2  18.7965
   23768.8  18.8187
   23779.4  18.8409
   23790.0  18.8631
   23800.6  18.8854
   23811.2  18.9077
   23821.9  18.9300
   23832.5  18.9523
   23843.1  18.9747
   23853.7  18.9971
   23864.4  19.0195
   23875.0  19.0420
   23885.7  19.0644
   23896.3  19.0870
   23907.0  19.1095
   23917.6  19.1321
   23928.3  19.1547
   23938.9  19.1774
   23949.6  19.2001
   23960.3  19.2228
   23971.0  19.2455
   23981.7  19.2683
   23992.3  19.2911
   24003.0  19.3139
   24013.7  19.3368
   24024.4  19.3597
   24035.2  19.3826
   24045.9  19.4055
   24056.6  19.4285
   24067.3  19.4515
   24078.0  19.4745
   24088.8  19.4975
   24099.5  19.5206
   24110.3  19.5437
   24121.0  19.5668
   24131.8  19.5900
   24142.5  19.6132
   24153.3  19.6364
   24164.0  19.6596
   24174.8  19.6829
   24185.6  19.7062
   24196.4  19.7295
   24207.2  19.7528
   24218.0  19.7762
   24228.7  19.7996
   24239.5  19.8230
   24250.4  19.8465
   24261.2  19.8699
   24272.0  19.8935
   24282.8  19.9170
   24293.6  19.9406
   24304.5  19.9642
   24315.3  19.9879
   24326.1  20.0116
   24337.0  20.0353
   24347.8  20.0591
   24358.7  20.0829
   24369.5  20.1067
   24380.4  20.1306
   24391.3  20.1544
   24402.1  20.1783
   24413.0  20.2023
   24423.9  20.2262
   24434.8  20.2502
   24445.7  20.2742
   24456.6  20.2983
   24467.5  20.3224
   24478.4  20.3465
   24489.3  20.3706
   24500.2  20.3948
   24511.1  20.4190
   24522.1  20.4432
   24533.0  20.4674
   24543.9  20.4917
   24554.9  20.5160
   24565.8  20.5404
   24576.8  20.5647
   24587.7  20.5891
   24598.7  20.6135
   24609.7  20.6380
   24620.6  20.6624
   24631.6  20.6870
   24642.6  20.7115
   24653.6  20.7360
   24664.6  20.7607
   24675.6  20.7853
   24686.6  20.8099
   24697.6  20.8347
   24708.6  20.8594
   24719.6  20.8842
   24730.6  20.9091
   24741.6  20.9339
   24752.7  20.9588
   24763.7  20.9837
   24774.7  21.0087
   24785.8  21.0336
   24796.8  21.0587
   24807.9  21.0837
   24818.9  21.1088
   24830.0  21.1339
   24841.1  21.1590
   24852.1  21.1842
   24863.2  21.2094
   24874.3  21.2346
   24885.4  21.2598
   24896.5  21.2851
   24907.6  21.3104
   24918.7  21.3358
   24929.8  21.3611
   24940.9  21.3865
   24952.0  21.4119
   24963.2  21.4374
   24974.3  21.4629
   24985.4  21.4884
   24996.6  21.5140
   25007.7  21.5395
   25018.8  21.5652
   25030.0  21.5908
   25039.1  21.6117
   25048.1  21.6325
   25057.2  21.6534
   25066.3  21.6743
   25075.4  21.6953
   25084.5  21.7163
   25093.5  21.7373
   25102.6  21.7583
   25111.7  21.7794
   25120.8  21.8004
   25129.9  21.8216
   25139.0  21.8427
   25148.1  21.8639
   25157.3  21.8850
   25166.4  21.9062
   25175.5  21.9274
   25184.6  21.9486
   25193.7  21.9699
   25202.9  21.9912
   25212.0  22.0125
   25221.1  22.0338
   25230.3  22.0551
   25239.4  22.0765
   25248.6  22.0979
   25257.7  22.1193
   25266.9  22.1407
   25276.0  22.1621
   25285.2  22.1836
   25294.3  22.2050
   25303.5  22.2265
   25312.7  22.2481
   25321.8  22.2696
   25331.0  22.2912
   25340.2  22.3127
   25349.4  22.3343
   25358.5  22.3560
   25367.7  22.3776
   25376.9  22.3993
   25386.1  22.4210
   25395.3  22.4427
   25404.5  22.4644
   25413.7  22.4862
   25422.9  22.5079
   25432.1  22.5297
   25441.4  22.5516
   25450.6  22.5734
   25459.8  22.5952
   25469.0  22.6171
   25478.2  22.6390
   25487.5  22.6609
   25496.7  22.6829
   25506.0  22.7049
   25515.2  22.7269
   25524.4  22.7490
   25533.7  22.7711
   25542.9  22.7932
   25552.2  22.8153
   25561.4  22.8374
   25570.7  22.8596
   25580.0  22.8817
   25589.2  22.9039
   25598.5  22.9262
   25607.8  22.9484
   25617.1  22.9707
   25626.3  22.9930
   25635.6  23.0153
   25644.9  23.0376
   25654.2  23.0600
   25663.5  23.0824
   25672.8  23.1048
   25682.1  23.1272
   25691.4  23.1496
   25700.7  23.1721
   25710.0  23.1946
   25719.3  23.2171
   25728.7  23.2396
   25738.0  23.2622
   25747.3  23.2847
   25756.6  23.3073
   25766.0  23.3299
   25775.3  23.3526
   25784.6  23.3752
   25794.0  23.3979
   25803.3  23.4206
   25812.7  23.4433
   25822.0  23.4661
   25831.4  23.4889
   25840.7  23.5117
   25850.1  23.5345
   25859.5  23.5573
   25868.8  23.5801
   25878.2  23.6030
   25887.6  23.6259
   25897.0  23.6489
   25906.4  23.6718
   25915.7  23.6948
   25925.1  23.7178
   25934.5  23.7409
   25943.9  23.7640
   25953.3  23.7871
   25962.7  23.8103
   25972.1  23.8334
   25981.5  23.8566
   25991.0  23.8798
   26000.4  23.9030
   26009.8  23.9263
   26019.2  23.9495
   26028.6  23.9728
   26038.1  23.9962
   26047.5  24.0195
   26056.9  24.0428
   26066.4  24.0662
   26075.8  24.0896
   26085.3  24.1131
   26094.7  24.1365
   26104.2  24.1600
   26113.6  24.1835
   26123.1  24.2070
   26132.6  24.2305
   26142.0  24.2541
   26151.5  24.2777
   26161.0  24.3013
   26170.5  24.3249
   26179.9  24.3486
   26189.4  24.3723
   26198.9  24.3960
   26208.4  24.4197
   26217.9  24.4434
   26227.4  24.4672
   26236.9  24.4910
   26246.4  24.5148
   26255.9  24.5387
   26265.4  24.5625
   26274.9  24.5864
   26284.5  24.6103
   26294.0  24.6342
   26303.5  24.6582
   26313.0  24.6822
   26322.6  24.7062
   26332.1  24.7302
   26341.7  24.7543
   26351.2  24.7784
   26360.7  24.8026
   26370.3  24.8267
   26379.9  24.8509
   26389.4  24.8751
   26399.0  24.8993
   26408.5  24.9236
   26418.1  24.9479
   26427.7  24.9722
   26437.2  24.9965
   26446.8  25.0209
   26456.4  25.0453
   26466.0  25.0696
   26475.6  25.0941
   26485.2  25.1185
   26494.8  25.1430
   26504.4  25.1675
   26514.0  25.1920
   26523.6  25.2165
   26533.2  25.2411
   26542.8  25.2657
   26552.4  25.2903
   26562.0  25.3150
   26571.7  25.3396
   26581.3  25.3643
   26590.9  25.3890
   26600.6  25.4137
   26610.2  25.4385
   26619.8  25.4633
   26629.5  25.4881
   26639.1  25.5129
   26648.8  25.5378
   26658.4  25.5626
   26668.1  25.5875
   26677.8  25.6125
   26687.4  25.6374
   26697.1  25.6624
   26706.8  25.6874
   26716.4  25.7124
   26726.1  25.7375
   26735.8  25.7625
   26745.5  25.7876
   26755.2  25.8128
   26764.9  25.8379
   26774.6  25.8632
   26784.3  25.8884
   26794.0  25.9137
   26803.7  25.9390
   26813.4  25.9644
   26823.1  25.9897
   26832.8  26.0151
   26842.5  26.0405
   26852.3  26.0659
   26862.0  26.0914
   26871.7  26.1168
   26881.5  26.1423
   26891.2  26.1678
   26901.0  26.1934
   26910.7  26.2190
   26920.5  26.2446
   26930.2  26.2702
   26940.0  26.2958
   26949.7  26.3215
   26959.5  26.3472
   26969.3  26.3729
   26979.0  26.3987
   26988.8  26.4244
   26998.6  26.4502
   27008.4  26.4761
   27018.1  26.5019
   27027.9  26.5278
   27037.7  26.5537
   27047.5  26.5796
   27057.3  26.6056
   27067.1  26.6315
   27076.9  26.6575
   27086.7  26.6835
   27096.6  26.7096
   27106.4  26.7357
   27116.2  26.7618
   27126.0  26.7879
   27135.8  26.8140
   27145.7  26.8402
   27155.5  26.8664
   27165.4  26.8926
   27175.2  26.9189
   27185.0  26.9452
   27194.9  26.9715
   27204.7  26.9979
   27214.6  27.0243
   27224.5  27.0508
   27234.3  27.0772
   27244.2  27.1037
   27254.1  27.1303
   27263.9  27.1568
   27273.8  27.1833
   27283.7  27.2099
   27293.6  27.2366
   27303.5  27.2632
   27313.4  27.2899
   27323.3  27.3166
   27333.2  27.3433
   27343.1  27.3700
   27353.0  27.3968
   27362.9  27.4236
   27372.8  27.4505
   27382.7  27.4773
   27392.6  27.5042
   27402.6  27.5311
   27412.5  27.5580
   27422.4  27.5850
   27432.3  27.6120
   27442.3  27.6390
   27452.2  27.6660
   27462.2  27.6931
   27472.1  27.7202
   27482.1  27.7473
   27492.0  27.7745
   27502.0  27.8016
   27512.0  27.8288
   27521.9  27.8560
   27531.9  27.8833
   27541.9  27.9106
   27551.9  27.9379
   27561.8  27.9652
   27571.8  27.9925
   27581.8  28.0199
   27591.8  28.0473
   27601.8  28.0748
   27611.8  28.1022
   27621.8  28.1297
   27631.8  28.1572
   27641.8  28.1848
   27651.8  28.2125
   27661.9  28.2401
   27671.9  28.2678
   27681.9  28.2955
   27691.9  28.3232
   27702.0  28.3509
   27712.0  28.3787
   27722.0  28.4065
   27732.1  28.4344
   27742.1  28.4622
   27752.2  28.4901
   27762.2  28.5180
   27772.3  28.5459
   27782.4  28.5739
   27792.4  28.6019
   27802.5  28.6300
   27812.6  28.6580
   27822.7  28.6861
   27832.7  28.7142
   27842.8  28.7423
   27852.9  28.7705
   27863.0  28.7987
   27873.1  28.8269
   27883.2  28.8551
   27893.3  28.8834
   27903.4  28.9117
   27913.5  28.9400
   27923.6  28.9684
   27933.7  28.9968
   27943.9  29.0252
   27954.0  29.0536
   27964.1  29.0820
   27974.2  29.1105
   27984.4  29.1391
   27994.5  29.1676
   28004.7  29.1962
   28014.8  29.2247
   28025.0  29.2534
   28035.1  29.2821
   28045.3  29.3107
   28055.4  29.3395
   28065.6  29.3682
   28075.8  29.3970
   28085.9  29.4258
   28096.1  29.4547
   28106.3  29.4837
   28116.5  29.5126
   28126.7  29.5416
   28136.8  29.5706
   28147.0  29.5996
   28157.2  29.6287
   28167.4  29.6577
   28177.6  29.6869
   28187.9  29.7160
   28198.1  29.7452
   28208.3  29.7744
   28218.5  29.8036
   28228.7  29.8329
   28239.0  29.8622
   28249.2  29.8915
   28259.4  29.9208
   28269.7  29.9502
   28279.9  29.9796
   28290.2  30.0090
   28300.4  30.0385
   28310.7  30.0680
   28320.9  30.0975
   28331.2  30.1270
   28341.4  30.1566
   28351.7  30.1862
   28362.0  30.2158
   28372.3  30.2455
   28382.5  30.2752
   28392.8  30.3049
   28403.1  30.3346
   28413.4  30.3644
   28423.7  30.3942
   28434.0  30.4241
   28444.3  30.4539
   28454.6  30.4838
   28464.9  30.5137
   28475.2  30.5437
   28485.5  30.5737
   28495.9  30.6037
   28506.2  30.6337
   28516.5  30.6638
   28526.8  30.6939
   28537.2  30.7240
   28547.5  30.7543
   28557.9  30.7845
   28568.2  30.8148
   28578.6  30.8451
   28588.9  30.8754
   28599.3  30.9058
   28609.6  30.9361
   28620.0  30.9666
   28630.4  30.9970
   28640.7  31.0275
   28651.1  31.0580
   28661.5  31.0885
   28671.9  31.1191
   28682.3  31.1497
   28692.7  31.1803
   28703.1  31.2110
   28713.5  31.2417
   28723.9  31.2724
   28734.3  31.3031
   28744.7  31.3339
   28755.1  31.3647
   28765.5  31.3956
   28775.9  31.4265
   28786.4  31.4574
   28796.8  31.4883
   28807.2  31.5192
   28817.7  31.5502
   28828.1  31.5812
   28838.5  31.6123
   28849.0  31.6434
   28859.4  31.6745
   28869.9  31.7056
   28880.4  31.7368
   28890.8  31.7680
   28901.3  31.7993
   28911.8  31.8305
   28922.2  31.8618
   28932.7  31.8931
   28943.2  31.9245
   28953.7  31.9559
   28964.2  31.9873
   28974.7  32.0187
   28985.2  32.0502
   28995.7  32.0817
   29006.2  32.1134
   29016.7  32.1450
   29027.2  32.1767
   29037.7  32.2084
   29048.2  32.2401
   29058.8  32.2718
   29069.3  32.3036
   29079.8  32.3354
   29090.4  32.3673
   29100.9  32.3992
   29111.4  32.4311
   29122.0  32.4630
   29132.5  32.4950
   29143.1  32.5270
   29153.6  32.5590
   29164.2  32.5911
   29174.8  32.6232
   29185.3  32.6553
   29195.9  32.6875
   29206.5  32.7197
   29217.1  32.7519
   29227.7  32.7842
   29238.3  32.8165
   29248.8  32.8487
   29259.4  32.8811
   29270.0  32.9135
   29280.7  32.9459
   29291.3  32.9784
   29301.9  33.0109
   29312.5  33.0434
   29323.1  33.0759
   29333.7  33.1084
   29344.4  33.1411
   29355.0  33.1737
   29365.6  33.2064
   29376.3  33.2391
   29386.9  33.2718
   29397.6  33.3046
   29408.2  33.3374
   29418.9  33.3702
   29429.5  33.4031
   29440.2  33.4360
   29450.9  33.4689
   29461.5  33.5019
   29472.2  33.5349
   29482.9  33.5680
   29493.6  33.6012
   29504.2  33.6343
   29514.9  33.6675
   29525.6  33.7007
   29536.3  33.7339
   29547.0  33.7672
   29557.7  33.8005
   29568.4  33.8339
   29579.2  33.8673
   29589.9  33.9006
   29600.6  33.9341
   29611.3  33.9676
   29622.0  34.0011
   29632.8  34.0347
   29643.5  34.0682
   29654.3  34.1018
   29665.0  34.1355
   29675.7  34.1691
   29686.5  34.2029
   29697.3  34.2366
   29708.0  34.2704
   29718.8  34.3042
   29729.5  34.3380
   29740.3  34.3719
   29751.1  34.4058
   29761.9  34.4397
   29772.7  34.4737
   29783.4  34.5077
   29794.2  34.5417
   29805.0  34.5758
   29815.8  34.6099
   29826.6  34.6441
   29837.4  34.6783
   29848.2  34.7125
   29859.1  34.7467
   29869.9  34.7810
   29880.7  34.8153
   29891.5  34.8496
   29902.4  34.8840
   29913.2  34.9184
   29924.0  34.9529
   29934.9  34.9873
   29945.7  35.0218
   29956.6  35.0564
   29967.4  35.0909
   29978.3  35.1256
   29989.1  35.1602
   30000.0  35.1948
