 Si Density=2.33, Angle=90.deg
 Photon Energy (eV), Atten Length (microns)
   30.0000  0.230161
   30.3089  0.232091
   30.6210  0.234039
   30.9363  0.236002
   31.2548  0.237969
   31.5766  0.239643
   31.9018  0.240948
   32.2302  0.241836
   32.5621  0.242727
   32.8974  0.243621
   33.2361  0.244518
   33.5783  0.245420
   33.9241  0.246324
   34.2734  0.247231
   34.6263  0.248142
   34.9828  0.249057
   35.3430  0.249975
   35.7069  0.250896
   36.0746  0.251820
   36.4460  0.252748
   36.8213  0.253679
   37.2004  0.254614
   37.5835  0.255552
   37.9705  0.256494
   38.3614  0.257439
   38.7564  0.258388
   39.1555  0.259387
   39.5586  0.260762
   39.9660  0.262520
   40.3775  0.264603
   40.7932  0.266703
   41.2133  0.268819
   41.6376  0.270953
   42.0663  0.273103
   42.4995  0.275270
   42.9371  0.277455
   43.3792  0.279657
   43.8258  0.281876
   44.2771  0.284113
   44.7330  0.286368
   45.1936  0.288640
   45.6589  0.290931
   46.1291  0.293350
   46.6041  0.295926
   47.0839  0.298630
   47.5687  0.301371
   48.0585  0.304138
   48.5534  0.306930
   49.0533  0.309748
   49.5584  0.312592
   50.0687  0.315462
   50.5842  0.318358
   51.1050  0.321281
   51.6312  0.324230
   52.1629  0.327207
   52.7000  0.329867
   53.2426  0.332188
   53.7908  0.333914
   54.3447  0.335650
   54.9043  0.337394
   55.4696  0.339148
   56.0407  0.340911
   56.6178  0.342683
   57.2007  0.344464
   57.7897  0.346254
   58.3847  0.348054
   58.9859  0.349863
   59.5933  0.350502
   60.2069  0.349295
   60.8268  0.347793
   61.4531  0.346234
   62.0859  0.344682
   62.7251  0.343137
   63.3710  0.341598
   64.0235  0.340066
   64.6827  0.338675
   65.3487  0.337395
   66.0216  0.339249
   66.7014  0.341142
   67.3882  0.343045
   68.0821  0.344959
   68.7831  0.346883
   69.4913  0.348818
   70.2068  0.353276
   70.9297  0.359365
   71.6601  0.368839
   72.3979  0.378562
   73.1434  0.388541
   73.8965  0.398784
   74.6574  0.411359
   75.4261  0.426829
   76.2027  0.446427
   76.9874  0.467362
   77.7801  0.489281
   78.5809  0.512046
   79.3901  0.532876
   80.2075  0.542211
   81.0334  0.551709
   81.8677  0.561373
   82.7107  0.571206
   83.5623  0.580937
   84.4228  0.590550
   85.2920  0.591218
   86.1702  0.591218
   87.0575  0.591218
   87.9539  0.591218
   88.8595  0.591219
   89.7745  0.591219
   90.6988  0.590421
   91.6327  0.588981
   92.5762  0.585346
   93.5295  0.581732
   94.4925  0.578141
   95.4655  0.574571
   96.4484  0.570477
   97.4415  0.565601
   98.4448  0.556251
   99.4585  0.546182
   100.483  8.126478E-02
   101.517  5.831076E-02
   102.562  7.541358E-02
   103.619  8.853634E-02
   104.685  9.067190E-02
   105.763  8.002682E-02
   106.852  6.913798E-02
   107.953  6.501558E-02
   109.064  6.297047E-02
   110.187  6.079578E-02
   111.322  5.736562E-02
   112.468  5.506041E-02
   113.626  5.346958E-02
   114.796  5.104188E-02
   115.978  4.791560E-02
   117.172  4.494228E-02
   118.379  4.319568E-02
   119.597  4.241746E-02
   120.829  4.165838E-02
   122.073  4.103207E-02
   123.330  4.082270E-02
   124.600  4.065550E-02
   125.883  4.060145E-02
   127.179  4.040853E-02
   128.488  4.003759E-02
   129.811  3.956503E-02
   131.148  3.901469E-02
   132.498  3.885903E-02
   133.863  3.945491E-02
   135.241  4.108876E-02
   136.634  4.273255E-02
   138.040  4.367766E-02
   139.462  4.391144E-02
   140.898  4.392164E-02
   142.349  4.440783E-02
   143.814  4.432293E-02
   145.295  4.397022E-02
   146.791  4.381588E-02
   148.303  4.381219E-02
   149.830  4.421845E-02
   151.372  4.351953E-02
   152.931  4.352227E-02
   154.506  4.567065E-02
   156.096  4.621577E-02
   157.704  4.596611E-02
   159.328  4.548515E-02
   160.968  4.494583E-02
   162.626  4.428848E-02
   164.300  4.393322E-02
   165.992  4.404982E-02
   167.701  4.403828E-02
   169.428  4.436794E-02
   171.172  4.543726E-02
   172.935  4.739599E-02
   174.715  4.973730E-02
   176.514  5.199995E-02
   178.332  5.351440E-02
   180.168  5.436633E-02
   182.023  5.521208E-02
   183.897  5.607097E-02
   185.791  5.694325E-02
   187.704  5.783795E-02
   189.637  5.876309E-02
   191.589  5.972778E-02
   193.562  6.070817E-02
   195.555  6.170464E-02
   197.568  6.271759E-02
   199.603  6.374716E-02
   201.658  6.478639E-02
   203.734  6.579444E-02
   205.832  6.679899E-02
   207.952  6.780404E-02
   210.093  6.882411E-02
   212.256  6.985956E-02
   214.441  7.091063E-02
   216.650  7.197756E-02
   218.880  7.307346E-02
   221.134  7.421645E-02
   223.411  7.555293E-02
   225.711  7.697802E-02
   228.035  7.843012E-02
   230.383  7.990966E-02
   232.756  8.141711E-02
   235.152  8.295299E-02
   237.573  8.451771E-02
   240.020  8.611181E-02
   242.491  8.773616E-02
   244.988  8.939116E-02
   247.510  9.107748E-02
   250.059  9.289816E-02
   252.634  9.479086E-02
   255.235  9.673994E-02
   257.863  9.872927E-02
   260.518  0.100760
   263.201  0.102831
   265.911  0.104946
   268.649  0.107104
   271.415  0.109307
   274.209  0.111554
   277.033  0.113848
   279.885  0.116189
   282.767  0.118579
   285.679  0.121017
   288.620  0.123506
   291.592  0.126045
   294.594  0.128637
   297.628  0.131322
   300.692  0.134097
   303.788  0.136991
   306.916  0.139949
   310.077  0.142971
   313.269  0.146058
   316.495  0.149212
   319.754  0.152434
   323.046  0.155725
   326.372  0.159088
   329.733  0.162523
   333.128  0.166032
   336.558  0.169617
   340.024  0.173279
   343.525  0.177021
   347.062  0.180843
   350.635  0.184748
   354.246  0.188737
   357.893  0.192813
   361.578  0.196976
   365.301  0.201320
   369.063  0.206183
   372.863  0.211249
   376.702  0.216496
   380.581  0.221872
   384.499  0.227382
   388.459  0.233029
   392.458  0.238817
   396.499  0.244748
   400.582  0.250827
   404.707  0.257056
   408.874  0.263440
   413.084  0.269983
   417.337  0.276688
   421.634  0.283560
   425.976  0.290602
   430.362  0.297819
   434.793  0.305216
   439.270  0.312796
   443.793  0.320565
   448.362  0.328526
   452.979  0.336685
   457.643  0.345067
   462.355  0.353720
   467.116  0.362824
   471.926  0.372271
   476.785  0.381964
   481.694  0.391910
   486.654  0.402115
   491.665  0.412585
   496.727  0.423328
   501.842  0.434351
   507.009  0.445662
   512.230  0.457266
   517.504  0.469172
   522.832  0.481388
   528.216  0.493923
   533.655  0.506784
   539.150  0.519980
   544.701  0.533520
   550.310  0.547412
   555.976  0.561666
   561.701  0.576292
   567.484  0.591298
   573.327  0.606694
   579.231  0.622492
   585.195  0.639161
   591.220  0.656504
   597.308  0.674646
   603.458  0.693290
   609.672  0.712450
   615.949  0.732139
   622.291  0.752371
   628.699  0.773163
   635.172  0.794531
   641.712  0.816488
   648.320  0.839050
   654.995  0.862238
   661.740  0.886066
   668.553  0.910555
   675.437  0.935717
   682.392  0.961574
   689.418  0.988148
   696.517  1.01484
   703.689  1.04170
   710.934  1.06867
   718.254  1.09633
   725.650  1.12470
   733.122  1.15381
   740.670  1.18366
   748.297  1.21429
   756.002  1.24572
   763.786  1.27796
   771.650  1.31103
   779.596  1.34496
   787.623  1.37976
   795.733  1.41623
   803.926  1.45456
   812.204  1.49510
   820.567  1.53678
   829.016  1.57961
   837.552  1.62365
   846.176  1.66891
   854.888  1.71543
   863.691  1.76325
   872.584  1.81240
   881.569  1.86293
   890.646  1.91486
   899.816  1.96965
   909.081  2.02763
   918.442  2.08901
   927.899  2.15243
   937.453  2.21777
   947.106  2.28510
   956.858  2.35448
   966.710  2.42596
   976.664  2.49961
   986.720  2.57552
   996.880  2.65378
   1007.14  2.73447
   1017.51  2.81767
   1027.99  2.90343
   1038.58  2.99179
   1049.27  3.08281
   1060.07  3.17664
   1070.99  3.27332
   1082.02  3.37293
   1093.16  3.47167
   1104.41  3.57091
   1115.79  3.66905
   1127.27  3.76995
   1138.88  3.87368
   1150.61  3.98028
   1162.46  4.08982
   1174.42  4.20236
   1186.52  4.31804
   1198.73  4.43699
   1211.08  4.55940
   1223.55  4.68530
   1236.15  4.81473
   1248.87  4.94775
   1261.73  5.08442
   1274.72  5.22486
   1287.85  5.36920
   1301.11  5.51794
   1314.51  5.67132
   1328.04  5.82902
   1341.72  5.99115
   1355.53  6.15788
   1369.49  6.32920
   1383.59  6.50535
   1397.84  6.68681
   1412.23  6.87356
   1426.77  7.06567
   1441.46  7.26344
   1456.30  7.46676
   1471.30  7.67577
   1486.45  7.89076
   1501.75  8.11413
   1517.22  8.34832
   1532.84  8.58969
   1548.62  8.83826
   1564.57  9.09440
   1580.68  9.35787
   1596.95  9.62895
   1613.40  9.90792
   1630.01  10.1950
   1646.79  10.4905
   1663.75  10.7945
   1680.88  11.1073
   1698.19  11.4291
   1715.67  11.7602
   1733.34  12.1035
   1751.18  12.4647
   1769.22  12.8381
   1787.43  13.2236
   1805.84  13.6227
   1824.43  14.0337
   1843.22  1.27404
   1862.20  1.30565
   1881.37  1.33804
   1900.74  1.37124
   1920.31  1.40526
   1940.09  1.44014
   1960.06  1.47589
   1980.24  1.51252
   2000.63  1.55019
   2021.23  1.58886
   2042.05  1.62862
   2063.07  1.66941
   2084.31  1.71137
   2105.78  1.75519
   2127.46  1.80024
   2149.36  1.84653
   2171.49  1.89423
   2193.85  1.94331
   2216.44  1.99384
   2239.26  2.04581
   2262.32  2.09925
   2285.62  2.15428
   2309.15  2.21097
   2332.93  2.26925
   2356.95  2.32922
   2381.22  2.39101
   2405.73  2.45458
   2430.51  2.52001
   2455.53  2.58733
   2480.81  2.65662
   2506.36  2.72801
   2532.17  2.80141
   2558.24  2.87688
   2584.58  2.95472
   2611.19  3.03479
   2638.08  3.11719
   2665.24  3.20196
   2692.68  3.28916
   2720.41  3.37919
   2748.42  3.47176
   2776.72  3.56694
   2805.31  3.66499
   2834.20  3.76589
   2863.38  3.86979
   2892.86  3.97676
   2922.65  4.08683
   2952.74  4.20028
   2983.15  4.31700
   3013.86  4.43708
   3044.89  4.56079
   3076.25  4.68817
   3107.92  4.81929
   3139.92  4.95425
   3172.25  5.09321
   3204.92  5.23634
   3237.92  5.38375
   3271.26  5.53542
   3304.94  5.69156
   3338.97  5.85253
   3373.35  6.01822
   3408.08  6.18877
   3443.17  6.36438
   3478.63  6.54517
   3514.45  6.73150
   3550.63  6.92324
   3587.19  7.12056
   3624.13  7.32409
   3661.44  7.53360
   3699.14  7.74926
   3737.23  7.97137
   3775.71  8.20002
   3814.59  8.43579
   3853.87  8.67845
   3893.55  8.92821
   3933.64  9.18571
   3974.14  9.45084
   4015.06  9.72386
   4056.40  10.0050
   4098.17  10.2946
   4140.37  10.5931
   4183.00  10.9004
   4226.07  11.2168
   4269.59  11.5427
   4313.55  11.8786
   4357.96  12.2245
   4402.83  12.5807
   4448.17  12.9477
   4493.97  13.3258
   4540.24  13.7154
   4586.99  14.1166
   4634.22  14.5298
   4681.94  14.9558
   4730.15  15.3946
   4778.85  15.8464
   4828.06  16.3119
   4877.77  16.7912
   4928.00  17.2853
   4978.74  17.7941
   5030.00  18.3181
   5036.95  18.3900
   5043.91  18.4623
   5050.87  18.5348
   5057.85  18.6076
   5064.83  18.6807
   5071.83  18.7541
   5078.84  18.8278
   5085.85  18.9017
   5092.88  18.9759
   5099.91  19.0505
   5106.96  19.1253
   5114.01  19.2005
   5121.07  19.2759
   5128.15  19.3517
   5135.23  19.4278
   5142.32  19.5041
   5149.43  19.5808
   5156.54  19.6577
   5163.66  19.7350
   5170.79  19.8126
   5177.94  19.8904
   5185.09  19.9686
   5192.25  20.0471
   5199.42  20.1259
   5206.60  20.2050
   5213.80  20.2845
   5221.00  20.3642
   5228.21  20.4443
   5235.43  20.5247
   5242.66  20.6054
   5249.90  20.6865
   5257.16  20.7678
   5264.42  20.8494
   5271.69  20.9314
   5278.97  21.0138
   5286.26  21.0965
   5293.56  21.1796
   5300.88  21.2630
   5308.20  21.3468
   5315.53  21.4309
   5322.87  21.5153
   5330.23  21.6000
   5337.59  21.6851
   5344.96  21.7705
   5352.34  21.8563
   5359.74  21.9423
   5367.14  22.0288
   5374.55  22.1156
   5381.98  22.2028
   5389.41  22.2903
   5396.85  22.3782
   5404.31  22.4663
   5411.77  22.5549
   5419.25  22.6438
   5426.73  22.7330
   5434.23  22.8227
   5441.74  22.9126
   5449.25  23.0029
   5456.78  23.0937
   5464.32  23.1849
   5471.87  23.2764
   5479.42  23.3683
   5486.99  23.4605
   5494.57  23.5532
   5502.16  23.6461
   5509.76  23.7395
   5517.37  23.8332
   5524.99  23.9272
   5532.62  24.0217
   5540.27  24.1165
   5547.92  24.2118
   5555.58  24.3076
   5563.26  24.4036
   5570.94  24.5001
   5578.63  24.5969
   5586.34  24.6941
   5594.06  24.7917
   5601.78  24.8896
   5609.52  24.9880
   5617.27  25.0868
   5625.03  25.1859
   5632.80  25.2855
   5640.58  25.3855
   5648.37  25.4859
   5656.17  25.5867
   5663.98  25.6879
   5671.81  25.7895
   5679.64  25.8916
   5687.49  25.9940
   5695.34  26.0968
   5703.21  26.2000
   5711.09  26.3036
   5718.98  26.4077
   5726.88  26.5123
   5734.79  26.6172
   5742.71  26.7226
   5750.64  26.8284
   5758.58  26.9346
   5766.54  27.0413
   5774.50  27.1483
   5782.48  27.2558
   5790.47  27.3637
   5798.46  27.4720
   5806.47  27.5808
   5814.49  27.6900
   5822.52  27.7997
   5830.57  27.9099
   5838.62  28.0204
   5846.69  28.1315
   5854.76  28.2429
   5862.85  28.3548
   5870.95  28.4672
   5879.06  28.5799
   5887.18  28.6931
   5895.31  28.8068
   5903.45  28.9209
   5911.61  29.0357
   5919.77  29.1509
   5927.95  29.2666
   5936.14  29.3827
   5944.34  29.4993
   5952.55  29.6163
   5960.77  29.7339
   5969.00  29.8518
   5977.25  29.9702
   5985.50  30.0892
   5993.77  30.2086
   6002.05  30.3285
   6010.34  30.4489
   6018.64  30.5698
   6026.96  30.6913
   6035.28  30.8132
   6043.62  30.9355
   6051.97  31.0584
   6060.32  31.1818
   6068.70  31.3057
   6077.08  31.4300
   6085.47  31.5548
   6093.88  31.6802
   6102.29  31.8060
   6110.72  31.9324
   6119.16  32.0593
   6127.62  32.1867
   6136.08  32.3146
   6144.56  32.4430
   6153.04  32.5719
   6161.54  32.7013
   6170.05  32.8313
   6178.58  32.9617
   6187.11  33.0927
   6195.66  33.2242
   6204.21  33.3563
   6212.78  33.4889
   6221.37  33.6221
   6229.96  33.7558
   6238.56  33.8900
   6247.18  34.0248
   6255.81  34.1601
   6264.45  34.2959
   6273.10  34.4323
   6281.77  34.5692
   6290.45  34.7066
   6299.14  34.8447
   6307.84  34.9832
   6316.55  35.1223
   6325.27  35.2620
   6334.01  35.4022
   6342.76  35.5431
   6351.52  35.6845
   6360.29  35.8269
   6369.08  35.9700
   6377.88  36.1135
   6386.69  36.2576
   6395.51  36.4024
   6404.34  36.5477
   6413.19  36.6935
   6422.05  36.8400
   6430.92  36.9870
   6439.80  37.1344
   6448.70  37.2824
   6457.60  37.4309
   6466.52  37.5801
   6475.45  37.7298
   6484.40  37.8801
   6493.36  38.0310
   6502.32  38.1825
   6511.31  38.3347
   6520.30  38.4874
   6529.31  38.6407
   6538.33  38.7948
   6547.36  38.9495
   6556.40  39.1048
   6565.46  39.2608
   6574.52  39.4173
   6583.61  39.5746
   6592.70  39.7324
   6601.81  39.8908
   6610.92  40.0499
   6620.06  40.2096
   6629.20  40.3699
   6638.36  40.5310
   6647.53  40.6928
   6656.71  40.8554
   6665.90  41.0186
   6675.11  41.1824
   6684.33  41.3470
   6693.56  41.5121
   6702.81  41.6779
   6712.07  41.8444
   6721.34  42.0116
   6730.62  42.1795
   6739.92  42.3479
   6749.23  42.5171
   6758.55  42.6871
   6767.89  42.8577
   6777.24  43.0289
   6786.60  43.2010
   6795.97  43.3737
   6805.36  43.5470
   6814.76  43.7211
   6824.17  43.8959
   6833.60  44.0714
   6843.04  44.2475
   6852.49  44.4243
   6861.95  44.6020
   6871.43  44.7803
   6880.92  44.9594
   6890.43  45.1392
   6899.95  45.3197
   6909.48  45.5010
   6919.02  45.6829
   6928.58  45.8655
   6938.15  46.0490
   6947.73  46.2331
   6957.33  46.4180
   6966.94  46.6036
   6976.56  46.7901
   6986.20  46.9775
   6995.85  47.1656
   7005.51  47.3544
   7015.19  47.5440
   7024.88  47.7343
   7034.58  47.9254
   7044.30  48.1174
   7054.03  48.3100
   7063.77  48.5034
   7073.53  48.6976
   7083.30  48.8925
   7093.08  49.0885
   7102.88  49.2851
   7112.69  49.4825
   7122.52  49.6808
   7132.35  49.8798
   7142.21  50.0796
   7152.07  50.2803
   7161.95  50.4817
   7171.84  50.6840
   7181.75  50.8870
   7191.67  51.0908
   7201.60  51.2956
   7211.55  51.5012
   7221.51  51.7077
   7231.49  51.9150
   7241.47  52.1231
   7251.48  52.3321
   7261.49  52.5418
   7271.52  52.7524
   7281.57  52.9640
   7291.62  53.1762
   7301.70  53.3893
   7311.78  53.6034
   7321.88  53.8185
   7332.00  54.0346
   7342.12  54.2515
   7352.26  54.4692
   7362.42  54.6879
   7372.59  54.9073
   7382.77  55.1277
   7392.97  55.3490
   7403.18  55.5711
   7413.41  55.7941
   7423.65  56.0181
   7433.90  56.2430
   7444.17  56.4689
   7454.45  56.6956
   7464.75  56.9232
   7475.06  57.1519
   7485.39  57.3813
   7495.72  57.6117
   7506.08  57.8431
   7516.45  58.0753
   7526.83  58.3086
   7537.23  58.5427
   7547.64  58.7777
   7558.06  59.0139
   7568.50  59.2510
   7578.96  59.4890
   7589.42  59.7281
   7599.91  59.9680
   7610.40  60.2090
   7620.92  60.4509
   7631.44  60.6937
   7641.98  60.9376
   7652.54  61.1824
   7663.11  61.4281
   7673.70  61.6750
   7684.29  61.9230
   7694.91  62.1721
   7705.54  62.4221
   7716.18  62.6732
   7726.84  62.9253
   7737.51  63.1783
   7748.20  63.4324
   7758.90  63.6876
   7769.62  63.9437
   7780.35  64.2008
   7791.10  64.4591
   7801.86  64.7183
   7812.64  64.9788
   7823.43  65.2403
   7834.23  65.5028
   7845.06  65.7664
   7855.89  66.0310
   7866.74  66.2968
   7877.61  66.5635
   7888.49  66.8313
   7899.39  67.1003
   7910.30  67.3703
   7921.22  67.6413
   7932.17  67.9138
   7943.12  68.1872
   7954.09  68.4618
   7965.08  68.7376
   7976.08  69.0144
   7987.10  69.2925
   7998.13  69.5715
   8009.18  69.8516
   8020.24  70.1330
   8031.32  70.4154
   8042.41  70.6990
   8053.52  70.9838
   8064.65  71.2699
   8075.79  71.5571
   8086.94  71.8455
   8098.11  72.1350
   8109.30  72.4257
   8120.50  72.7176
   8131.71  73.0106
   8142.95  73.3048
   8154.19  73.6002
   8165.46  73.8969
   8176.74  74.1946
   8188.03  74.4936
   8199.34  74.7941
   8210.67  75.0956
   8222.01  75.3984
   8233.36  75.7025
   8244.74  76.0077
   8256.13  76.3142
   8267.53  76.6219
   8278.95  76.9307
   8290.38  77.2410
   8301.83  77.5524
   8313.30  77.8650
   8324.79  78.1793
   8336.28  78.4948
   8347.80  78.8115
   8359.33  79.1296
   8370.88  79.4489
   8382.44  79.7696
   8394.02  80.0915
   8405.61  80.4146
   8417.22  80.7392
   8428.85  81.0650
   8440.49  81.3921
   8452.15  81.7207
   8463.82  82.0505
   8475.51  82.3819
   8487.22  82.7145
   8498.95  83.0484
   8510.68  83.3838
   8522.44  83.7204
   8534.21  84.0583
   8546.00  84.3978
   8557.80  84.7385
   8569.63  85.0806
   8581.46  85.4241
   8593.32  85.7691
   8605.19  86.1158
   8617.07  86.4637
   8628.97  86.8130
   8640.89  87.1639
   8652.83  87.5161
   8664.78  87.8698
   8676.75  88.2248
   8688.73  88.5812
   8700.74  88.9393
   8712.75  89.2986
   8724.79  89.6593
   8736.84  90.0220
   8748.91  90.3859
   8760.99  90.7515
   8773.09  91.1184
   8785.21  91.4868
   8797.35  91.8568
   8809.50  92.2281
   8821.67  92.6010
   8833.85  92.9755
   8846.05  93.3514
   8858.27  93.7287
   8870.51  94.1078
   8882.76  94.4884
   8895.03  94.8707
   8907.32  95.2543
   8919.62  95.6395
   8931.94  96.0264
   8944.28  96.4147
   8956.63  96.8045
   8969.00  97.1961
   8981.39  97.5891
   8993.80  97.9839
   9006.22  98.3801
   9018.66  98.7782
   9031.12  99.1783
   9043.59  99.5798
   9056.08  99.9830
   9068.59  100.388
   9081.12  100.794
   9093.66  101.203
   9106.22  101.612
   9118.80  102.024
   9131.40  102.437
   9144.01  102.851
   9156.64  103.268
   9169.29  103.686
   9181.95  104.106
   9194.64  104.528
   9207.34  104.951
   9220.05  105.376
   9232.79  105.803
   9245.54  106.231
   9258.31  106.661
   9271.10  107.094
   9283.91  107.527
   9296.73  107.963
   9309.57  108.400
   9322.43  108.839
   9335.31  109.280
   9348.20  109.723
   9361.12  110.167
   9374.05  110.614
   9386.99  111.062
   9399.96  111.512
   9412.94  111.964
   9425.95  112.417
   9438.97  112.873
   9452.00  113.330
   9465.06  113.789
   9478.13  114.251
   9491.23  114.714
   9504.34  115.180
   9517.46  115.647
   9530.61  116.116
   9543.77  116.587
   9556.96  117.060
   9570.16  117.534
   9583.38  118.011
   9596.61  118.489
   9609.87  118.970
   9623.14  119.453
   9636.44  119.937
   9649.75  120.424
   9663.08  120.913
   9676.42  121.403
   9689.79  121.896
   9703.17  122.390
   9716.58  122.887
   9730.00  123.386
   9743.44  123.886
   9756.89  124.389
   9770.37  124.894
   9783.87  125.401
   9797.38  125.910
   9810.91  126.421
   9824.47  126.934
   9838.04  127.449
   9851.63  127.967
   9865.23  128.486
   9878.86  129.008
   9892.50  129.531
   9906.17  130.057
   9919.85  130.585
   9933.55  131.115
   9947.28  131.648
   9961.02  132.183
   9974.77  132.719
   9988.55  133.258
   10002.3  133.799
   10016.2  134.343
   10030.0  134.889
   10038.1  135.209
   10046.2  135.531
   10054.4  135.853
   10062.5  136.176
   10070.7  136.500
   10078.8  136.824
   10087.0  137.150
   10095.1  137.477
   10103.3  137.804
   10111.5  138.132
   10119.6  138.461
   10127.8  138.790
   10136.0  139.121
   10144.2  139.452
   10152.4  139.784
   10160.7  140.117
   10168.9  140.450
   10177.1  140.784
   10185.3  141.119
   10193.6  141.455
   10201.8  141.792
   10210.1  142.129
   10218.4  142.468
   10226.6  142.807
   10234.9  143.147
   10243.2  143.487
   10251.5  143.829
   10259.8  144.171
   10268.1  144.515
   10276.4  144.859
   10284.7  145.203
   10293.0  145.549
   10301.4  145.896
   10309.7  146.243
   10318.0  146.591
   10326.4  146.940
   10334.7  147.290
   10343.1  147.641
   10351.5  147.992
   10359.9  148.344
   10368.2  148.697
   10376.6  149.052
   10385.0  149.406
   10393.4  149.762
   10401.8  150.118
   10410.3  150.476
   10418.7  150.834
   10427.1  151.194
   10435.6  151.554
   10444.0  151.915
   10452.4  152.277
   10460.9  152.640
   10469.4  153.004
   10477.8  153.368
   10486.3  153.734
   10494.8  154.100
   10503.3  154.467
   10511.8  154.835
   10520.3  155.204
   10528.8  155.574
   10537.3  155.945
   10545.9  156.316
   10554.4  156.689
   10562.9  157.062
   10571.5  157.436
   10580.1  157.811
   10588.6  158.187
   10597.2  158.565
   10605.8  158.942
   10614.3  159.321
   10622.9  159.701
   10631.5  160.081
   10640.1  160.463
   10648.7  160.845
   10657.4  161.228
   10666.0  161.613
   10674.6  161.998
   10683.3  162.384
   10691.9  162.771
   10700.6  163.158
   10709.2  163.547
   10717.9  163.937
   10726.6  164.328
   10735.2  164.719
   10743.9  165.111
   10752.6  165.505
   10761.3  165.900
   10770.0  166.296
   10778.7  166.692
   10787.5  167.090
   10796.2  167.489
   10804.9  167.888
   10813.7  168.289
   10822.4  168.690
   10831.2  169.092
   10840.0  169.496
   10848.7  169.900
   10857.5  170.305
   10866.3  170.711
   10875.1  171.119
   10883.9  171.527
   10892.7  171.936
   10901.5  172.346
   10910.3  172.757
   10919.2  173.169
   10928.0  173.582
   10936.8  173.996
   10945.7  174.411
   10954.5  174.827
   10963.4  175.244
   10972.3  175.662
   10981.2  176.081
   10990.0  176.501
   10998.9  176.922
   11007.8  177.343
   11016.8  177.767
   11025.7  178.191
   11034.6  178.615
   11043.5  179.041
   11052.5  179.469
   11061.4  179.897
   11070.4  180.325
   11079.3  180.755
   11088.3  181.186
   11097.3  181.619
   11106.2  182.052
   11115.2  182.487
   11124.2  182.922
   11133.2  183.359
   11142.2  183.797
   11151.2  184.235
   11160.3  184.675
   11169.3  185.116
   11178.3  185.558
   11187.4  186.001
   11196.4  186.445
   11205.5  186.890
   11214.6  187.336
   11223.6  187.783
   11232.7  188.231
   11241.8  188.681
   11250.9  189.131
   11260.0  189.583
   11269.1  190.035
   11278.3  190.488
   11287.4  190.943
   11296.5  191.399
   11305.7  191.856
   11314.8  192.314
   11324.0  192.774
   11333.1  193.234
   11342.3  193.695
   11351.5  194.158
   11360.7  194.621
   11369.9  195.086
   11379.1  195.552
   11388.3  196.019
   11397.5  196.487
   11406.7  196.956
   11415.9  197.426
   11425.2  197.898
   11434.4  198.370
   11443.7  198.843
   11452.9  199.318
   11462.2  199.794
   11471.5  200.271
   11480.8  200.750
   11490.1  201.230
   11499.4  201.710
   11508.7  202.192
   11518.0  202.675
   11527.3  203.159
   11536.6  203.645
   11546.0  204.131
   11555.3  204.618
   11564.7  205.107
   11574.0  205.597
   11583.4  206.088
   11592.8  206.580
   11602.1  207.074
   11611.5  207.569
   11620.9  208.064
   11630.3  208.561
   11639.7  209.059
   11649.2  209.558
   11658.6  210.060
   11668.0  210.562
   11677.5  211.065
   11686.9  211.569
   11696.4  212.075
   11705.8  212.582
   11715.3  213.090
   11724.8  213.600
   11734.3  214.110
   11743.8  214.622
   11753.3  215.135
   11762.8  215.649
   11772.3  216.164
   11781.8  216.681
   11791.4  217.199
   11800.9  217.718
   11810.5  218.238
   11820.0  218.760
   11829.6  219.283
   11839.2  219.807
   11848.7  220.332
   11858.3  220.860
   11867.9  221.388
   11877.5  221.917
   11887.1  222.447
   11896.8  222.979
   11906.4  223.513
   11916.0  224.047
   11925.7  224.583
   11935.3  225.119
   11945.0  225.658
   11954.6  226.197
   11964.3  226.738
   11974.0  227.280
   11983.7  227.824
   11993.4  228.368
   12003.1  228.914
   12012.8  229.461
   12022.5  230.010
   12032.3  230.560
   12042.0  231.112
   12051.7  231.664
   12061.5  232.218
   12071.3  232.774
   12081.0  233.331
   12090.8  233.888
   12100.6  234.448
   12110.4  235.009
   12120.2  235.571
   12130.0  236.134
   12139.8  236.698
   12149.6  237.264
   12159.5  237.832
   12169.3  238.401
   12179.1  238.971
   12189.0  239.542
   12198.9  240.115
   12208.7  240.689
   12218.6  241.264
   12228.5  241.841
   12238.4  242.420
   12248.3  243.000
   12258.2  243.581
   12268.1  244.164
   12278.1  244.748
   12288.0  245.334
   12297.9  245.921
   12307.9  246.509
   12317.9  247.098
   12327.8  247.690
   12337.8  248.282
   12347.8  248.876
   12357.8  249.471
   12367.8  250.068
   12377.8  250.666
   12387.8  251.266
   12397.8  251.867
   12407.9  252.469
   12417.9  253.073
   12428.0  253.679
   12438.0  254.286
   12448.1  254.895
   12458.2  255.505
   12468.2  256.117
   12478.3  256.730
   12488.4  257.344
   12498.5  257.960
   12508.6  258.578
   12518.8  259.197
   12528.9  259.817
   12539.0  260.439
   12549.2  261.063
   12559.3  261.687
   12569.5  262.314
   12579.7  262.941
   12589.9  263.571
   12600.0  264.202
   12610.2  264.834
   12620.4  265.468
   12630.7  266.103
   12640.9  266.741
   12651.1  267.379
   12661.3  268.019
   12671.6  268.661
   12681.8  269.305
   12692.1  269.949
   12702.4  270.596
   12712.7  271.243
   12723.0  271.893
   12733.2  272.544
   12743.6  273.196
   12753.9  273.850
   12764.2  274.505
   12774.5  275.163
   12784.9  275.821
   12795.2  276.482
   12805.6  277.143
   12815.9  277.807
   12826.3  278.472
   12836.7  279.139
   12847.1  279.807
   12857.5  280.478
   12867.9  281.150
   12878.3  281.823
   12888.7  282.498
   12899.1  283.174
   12909.6  283.853
   12920.0  284.533
   12930.5  285.214
   12940.9  285.897
   12951.4  286.582
   12961.9  287.268
   12972.4  287.956
   12982.9  288.645
   12993.4  289.336
   13003.9  290.029
   13014.4  290.724
   13024.9  291.420
   13035.5  292.117
   13046.0  292.818
   13056.6  293.519
   13067.2  294.222
   13077.7  294.926
   13088.3  295.633
   13098.9  296.341
   13109.5  297.051
   13120.1  297.762
   13130.7  298.475
   13141.4  299.190
   13152.0  299.907
   13162.6  300.625
   13173.3  301.344
   13184.0  302.066
   13194.6  302.789
   13205.3  303.514
   13216.0  304.241
   13226.7  304.970
   13237.4  305.700
   13248.1  306.432
   13258.8  307.167
   13269.6  307.904
   13280.3  308.642
   13291.0  309.381
   13301.8  310.123
   13312.6  310.866
   13323.3  311.612
   13334.1  312.358
   13344.9  313.107
   13355.7  313.857
   13366.5  314.610
   13377.3  315.364
   13388.2  316.119
   13399.0  316.877
   13409.8  317.636
   13420.7  318.397
   13431.5  319.160
   13442.4  319.925
   13453.3  320.691
   13464.2  321.460
   13475.1  322.231
   13486.0  323.003
   13496.9  323.777
   13507.8  324.553
   13518.8  325.331
   13529.7  326.111
   13540.6  326.892
   13551.6  327.676
   13562.6  328.461
   13573.5  329.248
   13584.5  330.037
   13595.5  330.827
   13606.5  331.620
   13617.5  332.415
   13628.6  333.211
   13639.6  334.009
   13650.6  334.810
   13661.7  335.612
   13672.7  336.416
   13683.8  337.222
   13694.9  338.031
   13705.9  338.842
   13717.0  339.654
   13728.1  340.468
   13739.2  341.284
   13750.4  342.103
   13761.5  342.923
   13772.6  343.745
   13783.8  344.569
   13794.9  345.396
   13806.1  346.223
   13817.3  347.053
   13828.4  347.885
   13839.6  348.719
   13850.8  349.555
   13862.0  350.393
   13873.3  351.232
   13884.5  352.074
   13895.7  352.918
   13907.0  353.765
   13918.2  354.613
   13929.5  355.464
   13940.8  356.317
   13952.0  357.171
   13963.3  358.028
   13974.6  358.886
   13985.9  359.747
   13997.3  360.610
   14008.6  361.475
   14019.9  362.342
   14031.3  363.210
   14042.6  364.082
   14054.0  364.954
   14065.4  365.829
   14076.7  366.706
   14088.1  367.586
   14099.5  368.467
   14111.0  369.350
   14122.4  370.236
   14133.8  371.123
   14145.2  372.014
   14156.7  372.906
   14168.1  373.800
   14179.6  374.696
   14191.1  375.595
   14202.6  376.495
   14214.1  377.398
   14225.6  378.302
   14237.1  379.210
   14248.6  380.119
   14260.1  381.030
   14271.7  381.943
   14283.2  382.858
   14294.8  383.777
   14306.3  384.696
   14317.9  385.618
   14329.5  386.542
   14341.1  387.469
   14352.7  388.398
   14364.3  389.330
   14376.0  390.264
   14387.6  391.200
   14399.2  392.140
   14410.9  393.081
   14422.5  394.023
   14434.2  394.969
   14445.9  395.917
   14457.6  396.867
   14469.3  397.819
   14481.0  398.773
   14492.7  399.730
   14504.4  400.689
   14516.2  401.650
   14527.9  402.613
   14539.7  403.578
   14551.5  404.547
   14563.2  405.517
   14575.0  406.489
   14586.8  407.464
   14598.6  408.443
   14610.4  409.422
   14622.3  410.405
   14634.1  411.389
   14645.9  412.376
   14657.8  413.366
   14669.6  414.357
   14681.5  415.351
   14693.4  416.348
   14705.3  417.346
   14717.2  418.347
   14729.1  419.350
   14741.0  420.356
   14752.9  421.365
   14764.9  422.375
   14776.8  423.388
   14788.8  424.403
   14800.8  425.421
   14812.7  426.441
   14824.7  427.464
   14836.7  428.490
   14848.7  429.518
   14860.7  430.549
   14872.8  431.582
   14884.8  432.618
   14896.9  433.655
   14908.9  434.696
   14921.0  435.739
   14933.0  436.784
   14945.1  437.832
   14957.2  438.883
   14969.3  439.936
   14981.4  440.991
   14993.6  442.048
   15005.7  443.109
   15017.8  444.173
   15030.0  445.239
   15038.6  445.997
   15047.3  446.757
   15055.9  447.518
   15064.6  448.281
   15073.2  449.045
   15081.9  449.811
   15090.6  450.577
   15099.2  451.345
   15107.9  452.114
   15116.6  452.885
   15125.3  453.657
   15134.0  454.430
   15142.6  455.204
   15151.3  455.980
   15160.0  456.757
   15168.8  457.535
   15177.5  458.315
   15186.2  459.096
   15194.9  459.878
   15203.6  460.662
   15212.4  461.447
   15221.1  462.233
   15229.9  463.020
   15238.6  463.809
   15247.4  464.600
   15256.1  465.391
   15264.9  466.184
   15273.7  466.977
   15282.4  467.774
   15291.2  468.570
   15300.0  469.368
   15308.8  470.168
   15317.6  470.970
   15326.4  471.773
   15335.2  472.576
   15344.0  473.382
   15352.8  474.189
   15361.6  474.997
   15370.5  475.806
   15379.3  476.618
   15388.1  477.430
   15397.0  478.243
   15405.8  479.058
   15414.7  479.875
   15423.5  480.692
   15432.4  481.511
   15441.3  482.331
   15450.1  483.154
   15459.0  483.976
   15467.9  484.801
   15476.8  485.627
   15485.7  486.454
   15494.6  487.283
   15503.5  488.113
   15512.4  488.945
   15521.3  489.777
   15530.2  490.611
   15539.1  491.447
   15548.1  492.285
   15557.0  493.124
   15565.9  493.964
   15574.9  494.806
   15583.8  495.651
   15592.8  496.496
   15601.7  497.342
   15610.7  498.189
   15619.7  499.040
   15628.6  499.890
   15637.6  500.742
   15646.6  501.596
   15655.6  502.451
   15664.6  503.307
   15673.6  504.165
   15682.6  505.025
   15691.6  505.886
   15700.6  506.748
   15709.6  507.611
   15718.7  508.477
   15727.7  509.343
   15736.7  510.211
   15745.8  511.081
   15754.8  511.951
   15763.9  512.823
   15772.9  513.697
   15782.0  514.573
   15791.1  515.450
   15800.1  516.328
   15809.2  517.208
   15818.3  518.090
   15827.4  518.974
   15836.5  519.858
   15845.6  520.744
   15854.7  521.633
   15863.8  522.522
   15872.9  523.412
   15882.0  524.304
   15891.1  525.199
   15900.3  526.094
   15909.4  526.991
   15918.5  527.889
   15927.7  528.789
   15936.8  529.690
   15946.0  530.593
   15955.2  531.497
   15964.3  532.403
   15973.5  533.310
   15982.7  534.219
   15991.9  535.130
   16001.0  536.041
   16010.2  536.954
   16019.4  537.870
   16028.6  538.786
   16037.8  539.704
   16047.1  540.623
   16056.3  541.545
   16065.5  542.468
   16074.7  543.393
   16084.0  544.319
   16093.2  545.248
   16102.5  546.178
   16111.7  547.109
   16121.0  548.041
   16130.2  548.976
   16139.5  549.912
   16148.8  550.849
   16158.0  551.788
   16167.3  552.729
   16176.6  553.671
   16185.9  554.615
   16195.2  555.561
   16204.5  556.507
   16213.8  557.455
   16223.1  558.405
   16232.5  559.357
   16241.8  560.310
   16251.1  561.265
   16260.5  562.221
   16269.8  563.180
   16279.1  564.139
   16288.5  565.100
   16297.9  566.063
   16307.2  567.028
   16316.6  567.994
   16326.0  568.962
   16335.3  569.934
   16344.7  570.905
   16354.1  571.878
   16363.5  572.853
   16372.9  573.831
   16382.3  574.809
   16391.7  575.789
   16401.2  576.770
   16410.6  577.754
   16420.0  578.739
   16429.4  579.725
   16438.9  580.714
   16448.3  581.704
   16457.8  582.695
   16467.2  583.688
   16476.7  584.683
   16486.2  585.679
   16495.6  586.677
   16505.1  587.677
   16514.6  588.679
   16524.1  589.682
   16533.6  590.686
   16543.1  591.693
   16552.6  592.702
   16562.1  593.711
   16571.6  594.722
   16581.1  595.736
   16590.6  596.753
   16600.2  597.770
   16609.7  598.789
   16619.3  599.810
   16628.8  600.833
   16638.4  601.857
   16647.9  602.882
   16657.5  603.911
   16667.1  604.940
   16676.6  605.971
   16686.2  607.004
   16695.8  608.039
   16705.4  609.075
   16715.0  610.113
   16724.6  611.153
   16734.2  612.194
   16743.8  613.237
   16753.4  614.282
   16763.1  615.328
   16772.7  616.378
   16782.3  617.428
   16792.0  618.479
   16801.6  619.534
   16811.3  620.589
   16820.9  621.646
   16830.6  622.705
   16840.3  623.766
   16849.9  624.829
   16859.6  625.894
   16869.3  626.962
   16879.0  628.030
   16888.7  629.100
   16898.4  630.172
   16908.1  631.247
   16917.8  632.322
   16927.5  633.400
   16937.3  634.479
   16947.0  635.561
   16956.7  636.643
   16966.5  637.728
   16976.2  638.814
   16986.0  639.903
   16995.7  640.993
   17005.5  642.085
   17015.3  643.179
   17025.0  644.275
   17034.8  645.372
   17044.6  646.471
   17054.4  647.573
   17064.2  648.676
   17074.0  649.780
   17083.8  650.887
   17093.6  651.996
   17103.5  653.106
   17113.3  654.218
   17123.1  655.332
   17133.0  656.451
   17142.8  657.569
   17152.6  658.690
   17162.5  659.813
   17172.4  660.938
   17182.2  662.065
   17192.1  663.193
   17202.0  664.324
   17211.9  665.456
   17221.7  666.590
   17231.6  667.726
   17241.5  668.864
   17251.4  670.004
   17261.4  671.145
   17271.3  672.288
   17281.2  673.435
   17291.1  674.582
   17301.1  675.731
   17311.0  676.882
   17320.9  678.036
   17330.9  679.191
   17340.9  680.347
   17350.8  681.507
   17360.8  682.667
   17370.8  683.830
   17380.7  684.994
   17390.7  686.161
   17400.7  687.330
   17410.7  688.502
   17420.7  689.675
   17430.7  690.852
   17440.7  692.029
   17450.8  693.208
   17460.8  694.389
   17470.8  695.573
   17480.9  696.758
   17490.9  697.945
   17500.9  699.134
   17511.0  700.326
   17521.1  701.519
   17531.1  702.714
   17541.2  703.912
   17551.3  705.111
   17561.4  706.311
   17571.5  707.514
   17581.6  708.720
   17591.7  709.927
   17601.8  711.136
   17611.9  712.346
   17622.0  713.561
   17632.1  714.775
   17642.2  715.992
   17652.4  717.212
   17662.5  718.433
   17672.7  719.656
   17682.8  720.882
   17693.0  722.111
   17703.1  723.341
   17713.3  724.574
   17723.5  725.808
   17733.7  727.046
   17743.9  728.284
   17754.1  729.524
   17764.3  730.767
   17774.5  732.012
   17784.7  733.259
   17794.9  734.508
   17805.1  735.758
   17815.4  737.012
   17825.6  738.267
   17835.8  739.524
   17846.1  740.784
   17856.3  742.045
   17866.6  743.309
   17876.9  744.574
   17887.1  745.842
   17897.4  747.112
   17907.7  748.383
   17918.0  749.657
   17928.3  750.934
   17938.6  752.212
   17948.9  753.492
   17959.2  754.774
   17969.5  756.061
   17979.8  757.348
   17990.2  758.638
   18000.5  759.932
   18010.8  761.226
   18021.2  762.522
   18031.5  763.821
   18041.9  765.122
   18052.3  766.425
   18062.6  767.730
   18073.0  769.037
   18083.4  770.348
   18093.8  771.659
   18104.2  772.973
   18114.6  774.290
   18125.0  775.608
   18135.4  776.928
   18145.8  778.250
   18156.2  779.575
   18166.7  780.903
   18177.1  782.231
   18187.6  783.562
   18198.0  784.897
   18208.5  786.232
   18218.9  787.570
   18229.4  788.910
   18239.9  790.253
   18250.3  791.597
   18260.8  792.945
   18271.3  794.297
   18281.8  795.649
   18292.3  797.004
   18302.8  798.361
   18313.3  799.721
   18323.9  801.083
   18334.4  802.446
   18344.9  803.812
   18355.5  805.182
   18366.0  806.552
   18376.6  807.924
   18387.1  809.299
   18397.7  810.678
   18408.3  812.057
   18418.8  813.439
   18429.4  814.823
   18440.0  816.211
   18450.6  817.599
   18461.2  818.990
   18471.8  820.384
   18482.4  821.780
   18493.0  823.177
   18503.7  824.577
   18514.3  825.981
   18524.9  827.386
   18535.6  828.793
   18546.2  830.202
   18556.9  831.617
   18567.5  833.033
   18578.2  834.451
   18588.9  835.871
   18599.6  837.296
   18610.2  838.721
   18620.9  840.148
   18631.6  841.580
   18642.3  843.012
   18653.1  844.447
   18663.8  845.884
   18674.5  847.324
   18685.2  848.766
   18696.0  850.210
   18706.7  851.657
   18717.4  853.107
   18728.2  854.558
   18739.0  856.012
   18749.7  857.467
   18760.5  858.927
   18771.3  860.388
   18782.1  861.851
   18792.9  863.319
   18803.6  864.786
   18814.5  866.257
   18825.3  867.729
   18836.1  869.206
   18846.9  870.684
   18857.7  872.165
   18868.6  873.650
   18879.4  875.138
   18890.2  876.627
   18901.1  878.118
   18912.0  879.612
   18922.8  881.110
   18933.7  882.608
   18944.6  884.110
   18955.5  885.615
   18966.4  887.121
   18977.2  888.630
   18988.2  890.141
   18999.1  891.656
   19010.0  893.172
   19020.9  894.690
   19031.8  896.211
   19042.8  897.736
   19053.7  899.263
   19064.6  900.791
   19075.6  902.322
   19086.6  903.857
   19097.5  905.393
   19108.5  906.932
   19119.5  908.474
   19130.5  910.018
   19141.5  911.564
   19152.4  913.113
   19163.5  914.668
   19174.5  916.223
   19185.5  917.781
   19196.5  919.341
   19207.5  920.906
   19218.6  922.472
   19229.6  924.040
   19240.7  925.611
   19251.7  927.186
   19262.8  928.762
   19273.8  930.340
   19284.9  931.923
   19296.0  933.507
   19307.1  935.093
   19318.2  936.682
   19329.3  938.275
   19340.4  939.869
   19351.5  941.466
   19362.6  943.065
   19373.7  944.669
   19384.9  946.273
   19396.0  947.880
   19407.1  949.490
   19418.3  951.104
   19429.4  952.719
   19440.6  954.337
   19451.8  955.957
   19463.0  957.582
   19474.1  959.210
   19485.3  960.841
   19496.5  962.476
   19507.7  964.112
   19518.9  965.751
   19530.1  967.392
   19541.4  969.038
   19552.6  970.685
   19563.8  972.334
   19575.1  973.986
   19586.3  975.643
   19597.6  977.300
   19608.8  978.961
   19620.1  980.623
   19631.4  982.291
   19642.6  983.959
   19653.9  985.630
   19665.2  987.306
   19676.5  988.983
   19687.8  990.662
   19699.1  992.344
   19710.4  994.031
   19721.8  995.718
   19733.1  997.408
   19744.4  999.101
   19755.8  1000.80
   19767.1  1002.50
   19778.5  1004.20
   19789.9  1005.91
   19801.2  1007.62
   19812.6  1009.33
   19824.0  1011.05
   19835.4  1012.77
   19846.8  1014.49
   19858.2  1016.21
   19869.6  1017.94
   19881.0  1019.67
   19892.4  1021.40
   19903.8  1023.14
   19915.3  1024.87
   19926.7  1026.62
   19938.2  1028.36
   19949.6  1030.10
   19961.1  1031.85
   19972.6  1033.61
   19984.0  1035.36
   19995.5  1037.12
   20007.0  1038.88
   20018.5  1040.65
   20030.0  1042.42
   20038.9  1043.79
   20047.9  1045.17
   20056.8  1046.55
   20065.7  1047.93
   20074.7  1049.31
   20083.6  1050.69
   20092.6  1052.08
   20101.5  1053.47
   20110.5  1054.86
   20119.5  1056.25
   20128.4  1057.64
   20137.4  1059.03
   20146.4  1060.43
   20155.4  1061.83
   20164.4  1063.23
   20173.3  1064.63
   20182.3  1066.04
   20191.3  1067.44
   20200.3  1068.85
   20209.3  1070.26
   20218.3  1071.67
   20227.4  1073.08
   20236.4  1074.49
   20245.4  1075.91
   20254.4  1077.33
   20263.5  1078.75
   20272.5  1080.17
   20281.5  1081.59
   20290.6  1083.02
   20299.6  1084.44
   20308.7  1085.87
   20317.7  1087.30
   20326.8  1088.73
   20335.8  1090.17
   20344.9  1091.60
   20354.0  1093.04
   20363.0  1094.48
   20372.1  1095.92
   20381.2  1097.36
   20390.3  1098.81
   20399.4  1100.25
   20408.5  1101.70
   20417.6  1103.15
   20426.7  1104.61
   20435.8  1106.06
   20444.9  1107.52
   20454.0  1108.97
   20463.1  1110.43
   20472.2  1111.90
   20481.4  1113.36
   20490.5  1114.83
   20499.6  1116.29
   20508.8  1117.76
   20517.9  1119.23
   20527.1  1120.71
   20536.2  1122.18
   20545.4  1123.66
   20554.5  1125.14
   20563.7  1126.62
   20572.9  1128.10
   20582.0  1129.59
   20591.2  1131.07
   20600.4  1132.56
   20609.6  1134.05
   20618.8  1135.54
   20627.9  1137.03
   20637.1  1138.53
   20646.3  1140.03
   20655.5  1141.52
   20664.8  1143.03
   20674.0  1144.53
   20683.2  1146.03
   20692.4  1147.54
   20701.6  1149.05
   20710.8  1150.56
   20720.1  1152.07
   20729.3  1153.59
   20738.6  1155.10
   20747.8  1156.62
   20757.1  1158.14
   20766.3  1159.66
   20775.6  1161.19
   20784.8  1162.72
   20794.1  1164.24
   20803.4  1165.78
   20812.6  1167.31
   20821.9  1168.84
   20831.2  1170.38
   20840.5  1171.92
   20849.8  1173.46
   20859.1  1175.00
   20868.4  1176.54
   20877.7  1178.09
   20887.0  1179.64
   20896.3  1181.19
   20905.6  1182.74
   20914.9  1184.30
   20924.2  1185.85
   20933.6  1187.41
   20942.9  1188.97
   20952.2  1190.53
   20961.6  1192.09
   20970.9  1193.66
   20980.3  1195.23
   20989.6  1196.80
   20999.0  1198.37
   21008.3  1199.94
   21017.7  1201.52
   21027.1  1203.09
   21036.5  1204.67
   21045.8  1206.26
   21055.2  1207.84
   21064.6  1209.42
   21074.0  1211.01
   21083.4  1212.60
   21092.8  1214.19
   21102.2  1215.79
   21111.6  1217.38
   21121.0  1218.98
   21130.4  1220.58
   21139.8  1222.18
   21149.3  1223.79
   21158.7  1225.39
   21168.1  1227.00
   21177.6  1228.61
   21187.0  1230.23
   21196.4  1231.84
   21205.9  1233.46
   21215.3  1235.07
   21224.8  1236.69
   21234.3  1238.32
   21243.7  1239.94
   21253.2  1241.57
   21262.7  1243.20
   21272.2  1244.83
   21281.6  1246.46
   21291.1  1248.09
   21300.6  1249.73
   21310.1  1251.37
   21319.6  1253.01
   21329.1  1254.65
   21338.6  1256.30
   21348.1  1257.94
   21357.7  1259.59
   21367.2  1261.24
   21376.7  1262.90
   21386.2  1264.55
   21395.8  1266.21
   21405.3  1267.87
   21414.8  1269.53
   21424.4  1271.19
   21433.9  1272.86
   21443.5  1274.53
   21453.1  1276.20
   21462.6  1277.87
   21472.2  1279.55
   21481.8  1281.22
   21491.3  1282.90
   21500.9  1284.58
   21510.5  1286.26
   21520.1  1287.95
   21529.7  1289.64
   21539.3  1291.33
   21548.9  1293.02
   21558.5  1294.71
   21568.1  1296.41
   21577.7  1298.10
   21587.3  1299.80
   21597.0  1301.50
   21606.6  1303.21
   21616.2  1304.91
   21625.9  1306.62
   21635.5  1308.33
   21645.1  1310.05
   21654.8  1311.76
   21664.4  1313.47
   21674.1  1315.20
   21683.8  1316.92
   21693.4  1318.64
   21703.1  1320.36
   21712.8  1322.09
   21722.5  1323.82
   21732.1  1325.55
   21741.8  1327.29
   21751.5  1329.02
   21761.2  1330.76
   21770.9  1332.50
   21780.6  1334.25
   21790.3  1335.99
   21800.0  1337.74
   21809.8  1339.49
   21819.5  1341.24
   21829.2  1342.99
   21838.9  1344.75
   21848.7  1346.51
   21858.4  1348.27
   21868.2  1350.03
   21877.9  1351.80
   21887.7  1353.56
   21897.4  1355.34
   21907.2  1357.11
   21916.9  1358.88
   21926.7  1360.66
   21936.5  1362.44
   21946.3  1364.22
   21956.1  1366.00
   21965.8  1367.78
   21975.6  1369.57
   21985.4  1371.36
   21995.2  1373.15
   22005.0  1374.94
   22014.8  1376.74
   22024.7  1378.54
   22034.5  1380.34
   22044.3  1382.14
   22054.1  1383.95
   22064.0  1385.75
   22073.8  1387.57
   22083.6  1389.38
   22093.5  1391.19
   22103.3  1393.01
   22113.2  1394.82
   22123.0  1396.64
   22132.9  1398.47
   22142.8  1400.29
   22152.6  1402.12
   22162.5  1403.96
   22172.4  1405.79
   22182.3  1407.62
   22192.2  1409.46
   22202.1  1411.30
   22212.0  1413.14
   22221.9  1414.99
   22231.8  1416.84
   22241.7  1418.68
   22251.6  1420.54
   22261.5  1422.39
   22271.4  1424.24
   22281.4  1426.10
   22291.3  1427.96
   22301.2  1429.83
   22311.2  1431.69
   22321.1  1433.56
   22331.1  1435.43
   22341.0  1437.30
   22351.0  1439.18
   22360.9  1441.05
   22370.9  1442.93
   22380.9  1444.81
   22390.9  1446.70
   22400.8  1448.58
   22410.8  1450.47
   22420.8  1452.36
   22430.8  1454.25
   22440.8  1456.15
   22450.8  1458.05
   22460.8  1459.95
   22470.8  1461.85
   22480.9  1463.75
   22490.9  1465.66
   22500.9  1467.57
   22510.9  1469.48
   22521.0  1471.40
   22531.0  1473.31
   22541.1  1475.24
   22551.1  1477.16
   22561.2  1479.08
   22571.2  1481.01
   22581.3  1482.94
   22591.3  1484.87
   22601.4  1486.80
   22611.5  1488.74
   22621.6  1490.67
   22631.7  1492.62
   22641.7  1494.56
   22651.8  1496.50
   22661.9  1498.45
   22672.0  1500.40
   22682.1  1502.35
   22692.3  1504.31
   22702.4  1506.27
   22712.5  1508.23
   22722.6  1510.19
   22732.7  1512.15
   22742.9  1514.12
   22753.0  1516.09
   22763.2  1518.06
   22773.3  1520.04
   22783.5  1522.01
   22793.6  1523.99
   22803.8  1525.97
   22813.9  1527.96
   22824.1  1529.94
   22834.3  1531.93
   22844.5  1533.93
   22854.7  1535.92
   22864.8  1537.92
   22875.0  1539.92
   22885.2  1541.92
   22895.4  1543.92
   22905.6  1545.93
   22915.9  1547.94
   22926.1  1549.95
   22936.3  1551.97
   22946.5  1553.98
   22956.7  1556.00
   22967.0  1558.03
   22977.2  1560.05
   22987.5  1562.08
   22997.7  1564.11
   23008.0  1566.14
   23018.2  1568.17
   23028.5  1570.21
   23038.7  1572.25
   23049.0  1574.29
   23059.3  1576.34
   23069.6  1578.38
   23079.8  1580.43
   23090.1  1582.49
   23100.4  1584.54
   23110.7  1586.59
   23121.0  1588.66
   23131.3  1590.72
   23141.7  1592.78
   23152.0  1594.85
   23162.3  1596.92
   23172.6  1598.99
   23182.9  1601.07
   23193.3  1603.14
   23203.6  1605.22
   23214.0  1607.30
   23224.3  1609.39
   23234.7  1611.48
   23245.0  1613.57
   23255.4  1615.66
   23265.8  1617.76
   23276.1  1619.85
   23286.5  1621.95
   23296.9  1624.06
   23307.3  1626.16
   23317.7  1628.27
   23328.0  1630.39
   23338.4  1632.50
   23348.9  1634.61
   23359.3  1636.73
   23369.7  1638.85
   23380.1  1640.98
   23390.5  1643.11
   23400.9  1645.23
   23411.4  1647.36
   23421.8  1649.50
   23432.2  1651.64
   23442.7  1653.77
   23453.1  1655.92
   23463.6  1658.06
   23474.1  1660.21
   23484.5  1662.36
   23495.0  1664.51
   23505.5  1666.66
   23515.9  1668.82
   23526.4  1670.98
   23536.9  1673.14
   23547.4  1675.31
   23557.9  1677.48
   23568.4  1679.65
   23578.9  1681.82
   23589.4  1684.00
   23599.9  1686.18
   23610.5  1688.36
   23621.0  1690.55
   23631.5  1692.73
   23642.1  1694.92
   23652.6  1697.12
   23663.1  1699.31
   23673.7  1701.51
   23684.2  1703.71
   23694.8  1705.91
   23705.4  1708.12
   23715.9  1710.33
   23726.5  1712.54
   23737.1  1714.76
   23747.7  1716.97
   23758.2  1719.19
   23768.8  1721.41
   23779.4  1723.64
   23790.0  1725.86
   23800.6  1728.10
   23811.2  1730.33
   23821.9  1732.56
   23832.5  1734.80
   23843.1  1737.04
   23853.7  1739.29
   23864.4  1741.53
   23875.0  1743.78
   23885.7  1746.03
   23896.3  1748.29
   23907.0  1750.55
   23917.6  1752.80
   23928.3  1755.07
   23938.9  1757.33
   23949.6  1759.60
   23960.3  1761.87
   23971.0  1764.14
   23981.7  1766.42
   23992.3  1768.70
   24003.0  1770.99
   24013.7  1773.27
   24024.4  1775.56
   24035.2  1777.85
   24045.9  1780.15
   24056.6  1782.44
   24067.3  1784.74
   24078.0  1787.05
   24088.8  1789.35
   24099.5  1791.66
   24110.3  1793.97
   24121.0  1796.28
   24131.8  1798.60
   24142.5  1800.92
   24153.3  1803.24
   24164.0  1805.56
   24174.8  1807.89
   24185.6  1810.22
   24196.4  1812.55
   24207.2  1814.89
   24218.0  1817.22
   24228.7  1819.56
   24239.5  1821.91
   24250.4  1824.26
   24261.2  1826.60
   24272.0  1828.96
   24282.8  1831.31
   24293.6  1833.67
   24304.5  1836.03
   24315.3  1838.40
   24326.1  1840.76
   24337.0  1843.13
   24347.8  1845.50
   24358.7  1847.88
   24369.5  1850.26
   24380.4  1852.64
   24391.3  1855.02
   24402.1  1857.41
   24413.0  1859.80
   24423.9  1862.19
   24434.8  1864.59
   24445.7  1866.99
   24456.6  1869.39
   24467.5  1871.80
   24478.4  1874.21
   24489.3  1876.62
   24500.2  1879.03
   24511.1  1881.45
   24522.1  1883.86
   24533.0  1886.29
   24543.9  1888.71
   24554.9  1891.14
   24565.8  1893.57
   24576.8  1896.01
   24587.7  1898.44
   24598.7  1900.88
   24609.7  1903.32
   24620.6  1905.77
   24631.6  1908.22
   24642.6  1910.67
   24653.6  1913.12
   24664.6  1915.58
   24675.6  1918.04
   24686.6  1920.50
   24697.6  1922.97
   24708.6  1925.44
   24719.6  1927.91
   24730.6  1930.38
   24741.6  1932.86
   24752.7  1935.34
   24763.7  1937.83
   24774.7  1940.31
   24785.8  1942.80
   24796.8  1945.30
   24807.9  1947.79
   24818.9  1950.29
   24830.0  1952.79
   24841.1  1955.30
   24852.1  1957.81
   24863.2  1960.32
   24874.3  1962.83
   24885.4  1965.35
   24896.5  1967.87
   24907.6  1970.39
   24918.7  1972.92
   24929.8  1975.45
   24940.9  1977.98
   24952.0  1980.52
   24963.2  1983.05
   24974.3  1985.59
   24985.4  1988.14
   24996.6  1990.68
   25007.7  1993.23
   25018.8  1995.79
   25030.0  1998.34
   25039.1  2000.42
   25048.1  2002.51
   25057.2  2004.59
   25066.3  2006.67
   25075.4  2008.76
   25084.5  2010.85
   25093.5  2012.94
   25102.6  2015.04
   25111.7  2017.13
   25120.8  2019.23
   25129.9  2021.33
   25139.0  2023.43
   25148.1  2025.53
   25157.3  2027.64
   25166.4  2029.75
   25175.5  2031.86
   25184.6  2033.97
   25193.7  2036.09
   25202.9  2038.20
   25212.0  2040.32
   25221.1  2042.45
   25230.3  2044.57
   25239.4  2046.69
   25248.6  2048.82
   25257.7  2050.95
   25266.9  2053.08
   25276.0  2055.21
   25285.2  2057.34
   25294.3  2059.48
   25303.5  2061.62
   25312.7  2063.76
   25321.8  2065.91
   25331.0  2068.05
   25340.2  2070.20
   25349.4  2072.35
   25358.5  2074.50
   25367.7  2076.65
   25376.9  2078.81
   25386.1  2080.97
   25395.3  2083.13
   25404.5  2085.29
   25413.7  2087.45
   25422.9  2089.62
   25432.1  2091.79
   25441.4  2093.96
   25450.6  2096.13
   25459.8  2098.30
   25469.0  2100.48
   25478.2  2102.65
   25487.5  2104.84
   25496.7  2107.02
   25506.0  2109.20
   25515.2  2111.39
   25524.4  2113.58
   25533.7  2115.77
   25542.9  2117.96
   25552.2  2120.16
   25561.4  2122.35
   25570.7  2124.55
   25580.0  2126.75
   25589.2  2128.96
   25598.5  2131.17
   25607.8  2133.37
   25617.1  2135.59
   25626.3  2137.80
   25635.6  2140.01
   25644.9  2142.23
   25654.2  2144.45
   25663.5  2146.67
   25672.8  2148.90
   25682.1  2151.12
   25691.4  2153.35
   25700.7  2155.58
   25710.0  2157.81
   25719.3  2160.04
   25728.7  2162.28
   25738.0  2164.52
   25747.3  2166.76
   25756.6  2169.00
   25766.0  2171.25
   25775.3  2173.49
   25784.6  2175.74
   25794.0  2177.99
   25803.3  2180.25
   25812.7  2182.50
   25822.0  2184.76
   25831.4  2187.02
   25840.7  2189.28
   25850.1  2191.54
   25859.5  2193.81
   25868.8  2196.07
   25878.2  2198.35
   25887.6  2200.62
   25897.0  2202.89
   25906.4  2205.17
   25915.7  2207.45
   25925.1  2209.73
   25934.5  2212.01
   25943.9  2214.30
   25953.3  2216.58
   25962.7  2218.87
   25972.1  2221.17
   25981.5  2223.46
   25991.0  2225.75
   26000.4  2228.05
   26009.8  2230.36
   26019.2  2232.66
   26028.6  2234.97
   26038.1  2237.27
   26047.5  2239.58
   26056.9  2241.89
   26066.4  2244.21
   26075.8  2246.52
   26085.3  2248.84
   26094.7  2251.17
   26104.2  2253.48
   26113.6  2255.81
   26123.1  2258.14
   26132.6  2260.47
   26142.0  2262.80
   26151.5  2265.13
   26161.0  2267.47
   26170.5  2269.80
   26179.9  2272.15
   26189.4  2274.49
   26198.9  2276.83
   26208.4  2279.18
   26217.9  2281.53
   26227.4  2283.88
   26236.9  2286.23
   26246.4  2288.59
   26255.9  2290.95
   26265.4  2293.31
   26274.9  2295.67
   26284.5  2298.03
   26294.0  2300.40
   26303.5  2302.77
   26313.0  2305.14
   26322.6  2307.51
   26332.1  2309.89
   26341.7  2312.26
   26351.2  2314.64
   26360.7  2317.03
   26370.3  2319.41
   26379.9  2321.80
   26389.4  2324.19
   26399.0  2326.57
   26408.5  2328.97
   26418.1  2331.37
   26427.7  2333.77
   26437.2  2336.17
   26446.8  2338.57
   26456.4  2340.98
   26466.0  2343.39
   26475.6  2345.80
   26485.2  2348.21
   26494.8  2350.63
   26504.4  2353.04
   26514.0  2355.46
   26523.6  2357.88
   26533.2  2360.31
   26542.8  2362.73
   26552.4  2365.16
   26562.0  2367.59
   26571.7  2370.03
   26581.3  2372.46
   26590.9  2374.90
   26600.6  2377.34
   26610.2  2379.78
   26619.8  2382.23
   26629.5  2384.67
   26639.1  2387.12
   26648.8  2389.57
   26658.4  2392.02
   26668.1  2394.48
   26677.8  2396.94
   26687.4  2399.40
   26697.1  2401.86
   26706.8  2404.32
   26716.4  2406.79
   26726.1  2409.26
   26735.8  2411.73
   26745.5  2414.21
   26755.2  2416.68
   26764.9  2419.16
   26774.6  2421.64
   26784.3  2424.12
   26794.0  2426.61
   26803.7  2429.10
   26813.4  2431.59
   26823.1  2434.08
   26832.8  2436.57
   26842.5  2439.07
   26852.3  2441.57
   26862.0  2444.07
   26871.7  2446.58
   26881.5  2449.09
   26891.2  2451.59
   26901.0  2454.10
   26910.7  2456.62
   26920.5  2459.14
   26930.2  2461.66
   26940.0  2464.18
   26949.7  2466.70
   26959.5  2469.22
   26969.3  2471.75
   26979.0  2474.28
   26988.8  2476.81
   26998.6  2479.35
   27008.4  2481.89
   27018.1  2484.42
   27027.9  2486.97
   27037.7  2489.51
   27047.5  2492.06
   27057.3  2494.61
   27067.1  2497.16
   27076.9  2499.71
   27086.7  2502.26
   27096.6  2504.82
   27106.4  2507.38
   27116.2  2509.95
   27126.0  2512.51
   27135.8  2515.08
   27145.7  2517.65
   27155.5  2520.22
   27165.4  2522.80
   27175.2  2525.37
   27185.0  2527.95
   27194.9  2530.53
   27204.7  2533.12
   27214.6  2535.70
   27224.5  2538.29
   27234.3  2540.88
   27244.2  2543.48
   27254.1  2546.07
   27263.9  2548.67
   27273.8  2551.27
   27283.7  2553.88
   27293.6  2556.49
   27303.5  2559.10
   27313.4  2561.71
   27323.3  2564.32
   27333.2  2566.94
   27343.1  2569.56
   27353.0  2572.18
   27362.9  2574.81
   27372.8  2577.43
   27382.7  2580.06
   27392.6  2582.69
   27402.6  2585.32
   27412.5  2587.96
   27422.4  2590.60
   27432.3  2593.24
   27442.3  2595.88
   27452.2  2598.53
   27462.2  2601.17
   27472.1  2603.83
   27482.1  2606.48
   27492.0  2609.13
   27502.0  2611.79
   27512.0  2614.45
   27521.9  2617.11
   27531.9  2619.78
   27541.9  2622.45
   27551.9  2625.12
   27561.8  2627.79
   27571.8  2630.46
   27581.8  2633.14
   27591.8  2635.82
   27601.8  2638.50
   27611.8  2641.18
   27621.8  2643.87
   27631.8  2646.56
   27641.8  2649.25
   27651.8  2651.94
   27661.9  2654.64
   27671.9  2657.34
   27681.9  2660.04
   27691.9  2662.74
   27702.0  2665.45
   27712.0  2668.16
   27722.0  2670.87
   27732.1  2673.59
   27742.1  2676.30
   27752.2  2679.03
   27762.2  2681.74
   27772.3  2684.47
   27782.4  2687.20
   27792.4  2689.93
   27802.5  2692.66
   27812.6  2695.40
   27822.7  2698.13
   27832.7  2700.87
   27842.8  2703.61
   27852.9  2706.36
   27863.0  2709.10
   27873.1  2711.85
   27883.2  2714.61
   27893.3  2717.36
   27903.4  2720.11
   27913.5  2722.87
   27923.6  2725.64
   27933.7  2728.40
   27943.9  2731.17
   27954.0  2733.93
   27964.1  2736.71
   27974.2  2739.48
   27984.4  2742.26
   27994.5  2745.04
   28004.7  2747.82
   28014.8  2750.60
   28025.0  2753.39
   28035.1  2756.18
   28045.3  2758.97
   28055.4  2761.76
   28065.6  2764.56
   28075.8  2767.36
   28085.9  2770.16
   28096.1  2772.96
   28106.3  2775.77
   28116.5  2778.58
   28126.7  2781.39
   28136.8  2784.21
   28147.0  2787.02
   28157.2  2789.84
   28167.4  2792.66
   28177.6  2795.49
   28187.9  2798.32
   28198.1  2801.15
   28208.3  2803.98
   28218.5  2806.81
   28228.7  2809.65
   28239.0  2812.50
   28249.2  2815.34
   28259.4  2818.19
   28269.7  2821.03
   28279.9  2823.88
   28290.2  2826.73
   28300.4  2829.59
   28310.7  2832.45
   28320.9  2835.31
   28331.2  2838.18
   28341.4  2841.04
   28351.7  2843.91
   28362.0  2846.78
   28372.3  2849.65
   28382.5  2852.53
   28392.8  2855.41
   28403.1  2858.28
   28413.4  2861.17
   28423.7  2864.06
   28434.0  2866.94
   28444.3  2869.84
   28454.6  2872.73
   28464.9  2875.62
   28475.2  2878.52
   28485.5  2881.43
   28495.9  2884.33
   28506.2  2887.24
   28516.5  2890.15
   28526.8  2893.05
   28537.2  2895.97
   28547.5  2898.89
   28557.9  2901.81
   28568.2  2904.73
   28578.6  2907.66
   28588.9  2910.58
   28599.3  2913.51
   28609.6  2916.44
   28620.0  2919.38
   28630.4  2922.32
   28640.7  2925.27
   28651.1  2928.21
   28661.5  2931.16
   28671.9  2934.11
   28682.3  2937.06
   28692.7  2940.02
   28703.1  2942.98
   28713.5  2945.94
   28723.9  2948.90
   28734.3  2951.86
   28744.7  2954.83
   28755.1  2957.80
   28765.5  2960.78
   28775.9  2963.76
   28786.4  2966.74
   28796.8  2969.71
   28807.2  2972.70
   28817.7  2975.69
   28828.1  2978.68
   28838.5  2981.67
   28849.0  2984.66
   28859.4  2987.66
   28869.9  2990.66
   28880.4  2993.66
   28890.8  2996.67
   28901.3  2999.68
   28911.8  3002.69
   28922.2  3005.69
   28932.7  3008.71
   28943.2  3011.73
   28953.7  3014.75
   28964.2  3017.78
   28974.7  3020.80
   28985.2  3023.83
   28995.7  3026.86
   29006.2  3029.89
   29016.7  3032.93
   29027.2  3035.97
   29037.7  3039.02
   29048.2  3042.06
   29058.8  3045.10
   29069.3  3048.15
   29079.8  3051.21
   29090.4  3054.27
   29100.9  3057.33
   29111.4  3060.39
   29122.0  3063.45
   29132.5  3066.52
   29143.1  3069.59
   29153.6  3072.67
   29164.2  3075.75
   29174.8  3078.82
   29185.3  3081.90
   29195.9  3084.99
   29206.5  3088.07
   29217.1  3091.16
   29227.7  3094.26
   29238.3  3097.35
   29248.8  3100.45
   29259.4  3103.55
   29270.0  3106.65
   29280.7  3109.76
   29291.3  3112.86
   29301.9  3115.98
   29312.5  3119.09
   29323.1  3122.20
   29333.7  3125.32
   29344.4  3128.44
   29355.0  3131.57
   29365.6  3134.70
   29376.3  3137.83
   29386.9  3140.96
   29397.6  3144.09
   29408.2  3147.23
   29418.9  3150.37
   29429.5  3153.51
   29440.2  3156.66
   29450.9  3159.80
   29461.5  3162.96
   29472.2  3166.11
   29482.9  3169.27
   29493.6  3172.43
   29504.2  3175.59
   29514.9  3178.76
   29525.6  3181.92
   29536.3  3185.09
   29547.0  3188.27
   29557.7  3191.44
   29568.4  3194.63
   29579.2  3197.81
   29589.9  3200.99
   29600.6  3204.18
   29611.3  3207.37
   29622.0  3210.56
   29632.8  3213.76
   29643.5  3216.96
   29654.3  3220.16
   29665.0  3223.36
   29675.7  3226.57
   29686.5  3229.78
   29697.3  3232.99
   29708.0  3236.21
   29718.8  3239.43
   29729.5  3242.65
   29740.3  3245.87
   29751.1  3249.10
   29761.9  3252.33
   29772.7  3255.56
   29783.4  3258.80
   29794.2  3262.03
   29805.0  3265.27
   29815.8  3268.51
   29826.6  3271.76
   29837.4  3275.01
   29848.2  3278.26
   29859.1  3281.51
   29869.9  3284.77
   29880.7  3288.03
   29891.5  3291.29
   29902.4  3294.55
   29913.2  3297.82
   29924.0  3301.09
   29934.9  3304.36
   29945.7  3307.64
   29956.6  3310.92
   29967.4  3314.20
   29978.3  3317.49
   29989.1  3320.77
   30000.0  3324.06
