 SiO2 Density=2.2, Angle=90.deg
 Photon Energy (eV), Atten Length (microns)
   30.0000  2.008196E-02
   30.3089  2.022794E-02
   30.6210  2.037500E-02
   30.9363  2.052312E-02
   31.2548  2.067228E-02
   31.5766  2.082148E-02
   31.9018  2.097049E-02
   32.2302  2.111913E-02
   32.5621  2.126882E-02
   32.8974  2.141956E-02
   33.2361  2.157137E-02
   33.5783  2.172424E-02
   33.9241  2.187817E-02
   34.2734  2.203319E-02
   34.6263  2.218929E-02
   34.9828  2.234650E-02
   35.3430  2.250480E-02
   35.7069  2.266422E-02
   36.0746  2.282476E-02
   36.4460  2.309351E-02
   36.8213  2.338374E-02
   37.2004  2.369737E-02
   37.5835  2.401512E-02
   37.9705  2.433704E-02
   38.3614  2.466315E-02
   38.7564  2.499354E-02
   39.1555  2.532847E-02
   39.5586  2.566936E-02
   39.9660  2.601640E-02
   40.3775  2.636945E-02
   40.7932  2.672723E-02
   41.2133  2.708984E-02
   41.6376  2.745737E-02
   42.0663  2.782979E-02
   42.4995  2.820723E-02
   42.9371  2.858977E-02
   43.3792  2.897744E-02
   43.8258  2.937034E-02
   44.2771  2.976850E-02
   44.7330  3.017203E-02
   45.1936  3.058100E-02
   45.6589  3.099545E-02
   46.1291  3.141603E-02
   46.6041  3.184297E-02
   47.0839  3.227622E-02
   47.5687  3.271541E-02
   48.0585  3.316051E-02
   48.5534  3.364349E-02
   49.0533  3.416209E-02
   49.5584  3.476914E-02
   50.0687  3.538685E-02
   50.5842  3.601539E-02
   51.1050  3.665499E-02
   51.6312  3.730580E-02
   52.1629  3.796803E-02
   52.7000  3.863973E-02
   53.2426  3.932090E-02
   53.7908  4.001002E-02
   54.3447  4.071084E-02
   54.9043  4.142359E-02
   55.4696  4.214847E-02
   56.0407  4.288571E-02
   56.6178  4.363547E-02
   57.2007  4.439787E-02
   57.7897  4.517320E-02
   58.3847  4.596168E-02
   58.9859  4.676357E-02
   59.5933  4.756942E-02
   60.2069  4.837282E-02
   60.8268  4.918581E-02
   61.4531  5.001046E-02
   62.0859  5.084747E-02
   62.7251  5.169682E-02
   63.3710  5.255870E-02
   64.0235  5.343325E-02
   64.6827  5.432209E-02
   65.3487  5.522519E-02
   66.0216  5.617970E-02
   66.7014  5.715045E-02
   67.3882  5.813734E-02
   68.0821  5.914064E-02
   68.7831  6.016057E-02
   69.4913  6.119746E-02
   70.2068  6.227873E-02
   70.9297  6.339742E-02
   71.6601  6.457883E-02
   72.3979  6.578196E-02
   73.1434  6.700721E-02
   73.8965  6.825504E-02
   74.6574  6.955178E-02
   75.4261  7.090277E-02
   76.2027  7.231964E-02
   76.9874  7.376615E-02
   77.7801  7.523795E-02
   78.5809  7.673338E-02
   79.3901  7.822644E-02
   80.2075  7.963116E-02
   81.0334  8.106116E-02
   81.8677  8.251689E-02
   82.7107  8.399869E-02
   83.5623  8.550446E-02
   84.4228  8.703449E-02
   85.2920  8.850311E-02
   86.1702  8.998814E-02
   87.0575  9.149636E-02
   87.9539  9.302793E-02
   88.8595  9.458321E-02
   89.7745  9.616247E-02
   90.6988  9.775633E-02
   91.6327  9.936603E-02
   92.5762  0.100971
   93.5295  0.102597
   94.4925  0.104245
   95.4655  0.105916
   96.4484  0.107599
   97.4415  0.109291
   98.4448  0.111029
   99.4585  0.112876
   100.483  7.516150E-02
   101.517  6.549232E-02
   102.562  7.472394E-02
   103.619  8.097756E-02
   104.685  8.285502E-02
   105.763  7.963113E-02
   106.852  7.535116E-02
   107.953  7.394226E-02
   109.064  7.355122E-02
   110.187  7.298525E-02
   111.322  7.146219E-02
   112.468  7.053878E-02
   113.626  7.003190E-02
   114.796  6.878088E-02
   115.978  6.678614E-02
   117.172  6.470196E-02
   118.379  6.357971E-02
   119.597  6.331437E-02
   120.829  6.303206E-02
   122.073  6.285185E-02
   123.330  6.308382E-02
   124.600  6.335036E-02
   125.883  6.373086E-02
   127.179  6.395268E-02
   128.488  6.396411E-02
   129.811  6.384162E-02
   131.148  6.360637E-02
   132.498  6.381708E-02
   133.863  6.492159E-02
   135.241  6.726269E-02
   136.634  6.960820E-02
   138.040  7.114032E-02
   139.462  7.184502E-02
   140.898  7.228455E-02
   142.349  7.329404E-02
   143.814  7.361656E-02
   145.295  7.360180E-02
   146.791  7.381995E-02
   148.303  7.422020E-02
   149.830  7.513971E-02
   151.372  7.463776E-02
   152.931  7.502938E-02
   154.506  7.822715E-02
   156.096  7.934653E-02
   157.704  7.942908E-02
   159.328  7.919031E-02
   160.968  7.885182E-02
   162.626  7.832780E-02
   164.300  7.819922E-02
   165.992  7.872193E-02
   167.701  7.906094E-02
   169.428  7.988416E-02
   171.172  8.177061E-02
   172.935  8.493017E-02
   174.715  8.862390E-02
   176.514  9.219785E-02
   178.332  9.473407E-02
   180.168  9.637765E-02
   182.023  9.805542E-02
   183.897  9.984673E-02
   185.791  0.101697
   187.704  0.103591
   189.637  0.105540
   191.589  0.107558
   193.562  0.109611
   195.555  0.111701
   197.568  0.113828
   199.603  0.115992
   201.658  0.118183
   203.734  0.120342
   205.832  0.122508
   207.952  0.124687
   210.093  0.126901
   212.256  0.129150
   214.441  0.131435
   216.650  0.133756
   218.880  0.136134
   221.134  0.138598
   223.411  0.141373
   225.711  0.144302
   228.035  0.147289
   230.383  0.150336
   232.756  0.153443
   235.152  0.156612
   237.573  0.159829
   240.020  0.163091
   242.491  0.166343
   244.988  0.169658
   247.510  0.173039
   250.059  0.176650
   252.634  0.180392
   255.235  0.184242
   257.863  0.188173
   260.518  0.192188
   263.201  0.196288
   265.911  0.200475
   268.649  0.204750
   271.415  0.209116
   274.209  0.213578
   277.033  0.218137
   279.885  0.222799
   282.767  0.227562
   285.679  0.232428
   288.620  0.237399
   291.592  0.242474
   294.594  0.247658
   297.628  0.253017
   300.692  0.258546
   303.788  0.264295
   306.916  0.270174
   310.077  0.276182
   313.269  0.282324
   316.495  0.288601
   319.754  0.295018
   323.046  0.301576
   326.372  0.308279
   329.733  0.315131
   333.128  0.322134
   336.558  0.329292
   340.024  0.336608
   343.525  0.344087
   347.062  0.351730
   350.635  0.359543
   354.246  0.367528
   357.893  0.375690
   361.578  0.384032
   365.301  0.392711
   369.063  0.402297
   372.863  0.412261
   376.702  0.422565
   380.581  0.433127
   384.499  0.443958
   388.459  0.455067
   392.458  0.466473
   396.499  0.478167
   400.582  0.490155
   404.707  0.502446
   408.874  0.515045
   413.084  0.527961
   417.337  0.541199
   421.634  0.554769
   425.976  0.568678
   430.362  0.582936
   434.793  0.597552
   439.270  0.612535
   443.793  0.627893
   448.362  0.643636
   452.979  0.659769
   457.643  0.676340
   462.355  0.693430
   467.116  0.711349
   471.926  0.729917
   476.785  0.748969
   481.694  0.768518
   486.654  0.788579
   491.665  0.809160
   496.727  0.830277
   501.842  0.851946
   507.009  0.874187
   512.230  0.897006
   517.504  0.920419
   522.832  0.944441
   528.216  0.969091
   533.655  0.994382
   539.150  1.02033
   544.701  0.301919
   550.310  0.309674
   555.976  0.317628
   561.701  0.325785
   567.484  0.334138
   573.327  0.342647
   579.231  0.351322
   585.195  0.360250
   591.220  0.369429
   597.308  0.378874
   603.458  0.388563
   609.672  0.398500
   615.949  0.408692
   622.291  0.419157
   628.699  0.429925
   635.172  0.441150
   641.712  0.452854
   648.320  0.465010
   654.995  0.477714
   661.740  0.490765
   668.553  0.504174
   675.437  0.517338
   682.392  0.530588
   689.418  0.543791
   696.517  0.557147
   703.689  0.570831
   710.934  0.585263
   718.254  0.600319
   725.650  0.615930
   733.122  0.631928
   740.670  0.648346
   748.297  0.665196
   756.002  0.682493
   763.786  0.700271
   771.650  0.718570
   779.596  0.737592
   787.623  0.757244
   795.733  0.777737
   803.926  0.798905
   812.204  0.820807
   820.567  0.843308
   829.016  0.866427
   837.552  0.890181
   846.176  0.914250
   854.888  0.938800
   863.691  0.963761
   872.584  0.989079
   881.569  1.01499
   890.646  1.04159
   899.816  1.06906
   909.081  1.09746
   918.442  1.12683
   927.899  1.15762
   937.453  1.18974
   947.106  1.22304
   956.858  1.25739
   966.710  1.29285
   976.664  1.32932
   986.720  1.36680
   996.880  1.40533
   1007.14  1.44491
   1017.51  1.48554
   1027.99  1.52702
   1038.58  1.56980
   1049.27  1.61390
   1060.07  1.65954
   1070.99  1.70648
   1082.02  1.75474
   1093.16  1.80390
   1104.41  1.85416
   1115.79  1.90536
   1127.27  1.95796
   1138.88  2.01202
   1150.61  2.06757
   1162.46  2.12466
   1174.42  2.18334
   1186.52  2.24365
   1198.73  2.30563
   1211.08  2.36934
   1223.55  2.43483
   1236.15  2.50222
   1248.87  2.57162
   1261.73  2.64316
   1274.72  2.71684
   1287.85  2.79290
   1301.11  2.87113
   1314.51  2.95161
   1328.04  3.03433
   1341.72  3.11939
   1355.53  3.20685
   1369.49  3.29672
   1383.59  3.38913
   1397.84  3.48417
   1412.23  3.58195
   1426.77  3.68249
   1441.46  3.78584
   1456.30  3.89222
   1471.30  4.00168
   1486.45  4.11454
   1501.75  4.23155
   1517.22  4.35296
   1532.84  4.47805
   1548.62  4.60672
   1564.57  4.73908
   1580.68  4.87534
   1596.95  5.01553
   1613.40  5.15976
   1630.01  5.30810
   1646.79  5.46072
   1663.75  5.61777
   1680.88  5.77933
   1698.19  5.94555
   1715.67  6.11654
   1733.34  6.29327
   1751.18  6.47662
   1769.22  6.66585
   1787.43  6.86085
   1805.84  7.06199
   1824.43  7.26905
   1843.22  2.22448
   1862.20  2.28183
   1881.37  2.34065
   1900.74  2.40099
   1920.31  2.46288
   1940.09  2.52637
   1960.06  2.59149
   1980.24  2.65829
   2000.63  2.72691
   2021.23  2.79730
   2042.05  2.86985
   2063.07  2.94439
   2084.31  3.02109
   2105.78  3.10089
   2127.46  3.18296
   2149.36  3.26731
   2171.49  3.35423
   2193.85  3.44367
   2216.44  3.53575
   2239.26  3.63048
   2262.32  3.72790
   2285.62  3.82824
   2309.15  3.93158
   2332.93  4.03787
   2356.95  4.14727
   2381.22  4.25994
   2405.73  4.37592
   2430.51  4.49530
   2455.53  4.61817
   2480.81  4.74463
   2506.36  4.87492
   2532.17  5.00894
   2558.24  5.14682
   2584.58  5.28896
   2611.19  5.43524
   2638.08  5.58580
   2665.24  5.74075
   2692.68  5.90020
   2720.41  6.06476
   2748.42  6.23404
   2776.72  6.40817
   2805.31  6.58755
   2834.20  6.77220
   2863.38  6.96241
   2892.86  7.15827
   2922.65  7.35991
   2952.74  7.56774
   2983.15  7.78164
   3013.86  8.00176
   3044.89  8.22858
   3076.25  8.46220
   3107.92  8.70279
   3139.92  8.95051
   3172.25  9.20564
   3204.92  9.46852
   3237.92  9.73930
   3271.26  10.0180
   3304.94  10.3051
   3338.97  10.6011
   3373.35  10.9059
   3408.08  11.2197
   3443.17  11.5430
   3478.63  11.8760
   3514.45  12.2193
   3550.63  12.5727
   3587.19  12.9367
   3624.13  13.3121
   3661.44  13.6989
   3699.14  14.0971
   3737.23  14.5074
   3775.71  14.9300
   3814.59  15.3660
   3853.87  15.8149
   3893.55  16.2773
   3933.64  16.7541
   3974.14  17.2453
   4015.06  17.7517
   4056.40  18.2733
   4098.17  18.8106
   4140.37  19.3645
   4183.00  19.9350
   4226.07  20.5226
   4269.59  21.1282
   4313.55  21.7523
   4357.96  22.3952
   4402.83  23.0577
   4448.17  23.7404
   4493.97  24.4440
   4540.24  25.1691
   4586.99  25.9160
   4634.22  26.6857
   4681.94  27.4793
   4730.15  28.2970
   4778.85  29.1394
   4828.06  30.0075
   4877.77  30.9018
   4928.00  31.8238
   4978.74  32.7737
   5030.00  33.7524
   5036.95  33.8867
   5043.91  34.0217
   5050.87  34.1571
   5057.85  34.2930
   5064.83  34.4296
   5071.83  34.5667
   5078.84  34.7043
   5085.85  34.8425
   5092.88  34.9812
   5099.91  35.1205
   5106.96  35.2603
   5114.01  35.4007
   5121.07  35.5417
   5128.15  35.6832
   5135.23  35.8254
   5142.32  35.9681
   5149.43  36.1113
   5156.54  36.2552
   5163.66  36.3996
   5170.79  36.5446
   5177.94  36.6902
   5185.09  36.8363
   5192.25  36.9831
   5199.42  37.1304
   5206.60  37.2783
   5213.80  37.4269
   5221.00  37.5760
   5228.21  37.7258
   5235.43  37.8762
   5242.66  38.0271
   5249.90  38.1787
   5257.16  38.3308
   5264.42  38.4836
   5271.69  38.6370
   5278.97  38.7910
   5286.26  38.9458
   5293.56  39.1012
   5300.88  39.2572
   5308.20  39.4140
   5315.53  39.5713
   5322.87  39.7292
   5330.23  39.8878
   5337.59  40.0469
   5344.96  40.2067
   5352.34  40.3673
   5359.74  40.5284
   5367.14  40.6902
   5374.55  40.8527
   5381.98  41.0158
   5389.41  41.1796
   5396.85  41.3441
   5404.31  41.5092
   5411.77  41.6750
   5419.25  41.8414
   5426.73  42.0085
   5434.23  42.1764
   5441.74  42.3448
   5449.25  42.5140
   5456.78  42.6839
   5464.32  42.8546
   5471.87  43.0260
   5479.42  43.1980
   5486.99  43.3708
   5494.57  43.5443
   5502.16  43.7184
   5509.76  43.8933
   5517.37  44.0688
   5524.99  44.2450
   5532.62  44.4220
   5540.27  44.5997
   5547.92  44.7782
   5555.58  44.9574
   5563.26  45.1374
   5570.94  45.3181
   5578.63  45.4995
   5586.34  45.6816
   5594.06  45.8645
   5601.78  46.0481
   5609.52  46.2324
   5617.27  46.4175
   5625.03  46.6033
   5632.80  46.7900
   5640.58  46.9774
   5648.37  47.1656
   5656.17  47.3546
   5663.98  47.5443
   5671.81  47.7348
   5679.64  47.9261
   5687.49  48.1181
   5695.34  48.3108
   5703.21  48.5044
   5711.09  48.6987
   5718.98  48.8939
   5726.88  49.0899
   5734.79  49.2867
   5742.71  49.4844
   5750.64  49.6828
   5758.58  49.8820
   5766.54  50.0821
   5774.50  50.2828
   5782.48  50.4846
   5790.47  50.6870
   5798.46  50.8902
   5806.47  51.0943
   5814.49  51.2992
   5822.52  51.5050
   5830.57  51.7117
   5838.62  51.9191
   5846.69  52.1275
   5854.76  52.3367
   5862.85  52.5466
   5870.95  52.7576
   5879.06  52.9692
   5887.18  53.1817
   5895.31  53.3952
   5903.45  53.6094
   5911.61  53.8248
   5919.77  54.0410
   5927.95  54.2581
   5936.14  54.4762
   5944.34  54.6950
   5952.55  54.9148
   5960.77  55.1355
   5969.00  55.3570
   5977.25  55.5794
   5985.50  55.8028
   5993.77  56.0270
   6002.05  56.2523
   6010.34  56.4784
   6018.64  56.7055
   6026.96  56.9336
   6035.28  57.1626
   6043.62  57.3924
   6051.97  57.6233
   6060.32  57.8550
   6068.70  58.0877
   6077.08  58.3213
   6085.47  58.5557
   6093.88  58.7913
   6102.29  59.0277
   6110.72  59.2651
   6119.16  59.5036
   6127.62  59.7430
   6136.08  59.9835
   6144.56  60.2248
   6153.04  60.4671
   6161.54  60.7105
   6170.05  60.9547
   6178.58  61.2000
   6187.11  61.4463
   6195.66  61.6935
   6204.21  61.9419
   6212.78  62.1913
   6221.37  62.4416
   6229.96  62.6931
   6238.56  62.9455
   6247.18  63.1988
   6255.81  63.4534
   6264.45  63.7088
   6273.10  63.9653
   6281.77  64.2228
   6290.45  64.4813
   6299.14  64.7410
   6307.84  65.0016
   6316.55  65.2633
   6325.27  65.5261
   6334.01  65.7899
   6342.76  66.0549
   6351.52  66.3211
   6360.29  66.5890
   6369.08  66.8580
   6377.88  67.1279
   6386.69  67.3990
   6395.51  67.6713
   6404.34  67.9446
   6413.19  68.2189
   6422.05  68.4945
   6430.92  68.7711
   6439.80  69.0486
   6448.70  69.3271
   6457.60  69.6067
   6466.52  69.8876
   6475.45  70.1694
   6484.40  70.4524
   6493.36  70.7366
   6502.32  71.0219
   6511.31  71.3084
   6520.30  71.5960
   6529.31  71.8847
   6538.33  72.1748
   6547.36  72.4662
   6556.40  72.7587
   6565.46  73.0526
   6574.52  73.3475
   6583.61  73.6437
   6592.70  73.9409
   6601.81  74.2394
   6610.92  74.5392
   6620.06  74.8401
   6629.20  75.1422
   6638.36  75.4456
   6647.53  75.7504
   6656.71  76.0568
   6665.90  76.3642
   6675.11  76.6729
   6684.33  76.9829
   6693.56  77.2941
   6702.81  77.6065
   6712.07  77.9204
   6721.34  78.2353
   6730.62  78.5517
   6739.92  78.8692
   6749.23  79.1880
   6758.55  79.5084
   6767.89  79.8299
   6777.24  80.1528
   6786.60  80.4771
   6795.97  80.8026
   6805.36  81.1293
   6814.76  81.4576
   6824.17  81.7870
   6833.60  82.1179
   6843.04  82.4500
   6852.49  82.7834
   6861.95  83.1185
   6871.43  83.4548
   6880.92  83.7924
   6890.43  84.1317
   6899.95  84.4721
   6909.48  84.8140
   6919.02  85.1572
   6928.58  85.5017
   6938.15  85.8478
   6947.73  86.1951
   6957.33  86.5439
   6966.94  86.8942
   6976.56  87.2461
   6986.20  87.5996
   6995.85  87.9544
   7005.51  88.3107
   7015.19  88.6685
   7024.88  89.0276
   7034.58  89.3882
   7044.30  89.7504
   7054.03  90.1139
   7063.77  90.4789
   7073.53  90.8455
   7083.30  91.2134
   7093.08  91.5833
   7102.88  91.9545
   7112.69  92.3272
   7122.52  92.7015
   7132.35  93.0772
   7142.21  93.4544
   7152.07  93.8334
   7161.95  94.2136
   7171.84  94.5956
   7181.75  94.9790
   7191.67  95.3638
   7201.60  95.7506
   7211.55  96.1389
   7221.51  96.5288
   7231.49  96.9204
   7241.47  97.3134
   7251.48  97.7082
   7261.49  98.1044
   7271.52  98.5022
   7281.57  98.9018
   7291.62  99.3028
   7301.70  99.7054
   7311.78  100.110
   7321.88  100.516
   7332.00  100.924
   7342.12  101.334
   7352.26  101.745
   7362.42  102.159
   7372.59  102.573
   7382.77  102.989
   7392.97  103.408
   7403.18  103.827
   7413.41  104.249
   7423.65  104.672
   7433.90  105.097
   7444.17  105.524
   7454.45  105.953
   7464.75  106.383
   7475.06  106.815
   7485.39  107.249
   7495.72  107.685
   7506.08  108.122
   7516.45  108.561
   7526.83  109.002
   7537.23  109.445
   7547.64  109.889
   7558.06  110.336
   7568.50  110.784
   7578.96  111.235
   7589.42  111.687
   7599.91  112.140
   7610.40  112.596
   7620.92  113.054
   7631.44  113.513
   7641.98  113.974
   7652.54  114.437
   7663.11  114.902
   7673.70  115.369
   7684.29  115.839
   7694.91  116.310
   7705.54  116.783
   7716.18  117.258
   7726.84  117.735
   7737.51  118.214
   7748.20  118.695
   7758.90  119.177
   7769.62  119.662
   7780.35  120.149
   7791.10  120.637
   7801.86  121.128
   7812.64  121.621
   7823.43  122.116
   7834.23  122.613
   7845.06  123.112
   7855.89  123.613
   7866.74  124.116
   7877.61  124.621
   7888.49  125.128
   7899.39  125.637
   7910.30  126.148
   7921.22  126.662
   7932.17  127.177
   7943.12  127.695
   7954.09  128.215
   7965.08  128.737
   7976.08  129.261
   7987.10  129.787
   7998.13  130.316
   8009.18  130.846
   8020.24  131.379
   8031.32  131.914
   8042.41  132.451
   8053.52  132.990
   8064.65  133.532
   8075.79  134.077
   8086.94  134.623
   8098.11  135.171
   8109.30  135.722
   8120.50  136.275
   8131.71  136.830
   8142.95  137.388
   8154.19  137.948
   8165.46  138.510
   8176.74  139.074
   8188.03  139.641
   8199.34  140.210
   8210.67  140.782
   8222.01  141.355
   8233.36  141.932
   8244.74  142.510
   8256.13  143.091
   8267.53  143.675
   8278.95  144.260
   8290.38  144.848
   8301.83  145.439
   8313.30  146.031
   8324.79  146.627
   8336.28  147.225
   8347.80  147.826
   8359.33  148.429
   8370.88  149.035
   8382.44  149.643
   8394.02  150.253
   8405.61  150.866
   8417.22  151.482
   8428.85  152.099
   8440.49  152.720
   8452.15  153.343
   8463.82  153.969
   8475.51  154.597
   8487.22  155.228
   8498.95  155.861
   8510.68  156.498
   8522.44  157.136
   8534.21  157.777
   8546.00  158.421
   8557.80  159.068
   8569.63  159.717
   8581.46  160.368
   8593.32  161.023
   8605.19  161.681
   8617.07  162.341
   8628.97  163.004
   8640.89  163.670
   8652.83  164.338
   8664.78  165.009
   8676.75  165.683
   8688.73  166.359
   8700.74  167.039
   8712.75  167.721
   8724.79  168.406
   8736.84  169.094
   8748.91  169.785
   8760.99  170.479
   8773.09  171.175
   8785.21  171.875
   8797.35  172.577
   8809.50  173.282
   8821.67  173.990
   8833.85  174.701
   8846.05  175.414
   8858.27  176.131
   8870.51  176.851
   8882.76  177.573
   8895.03  178.299
   8907.32  179.028
   8919.62  179.759
   8931.94  180.494
   8944.28  181.231
   8956.63  181.972
   8969.00  182.716
   8981.39  183.462
   8993.80  184.212
   9006.22  184.965
   9018.66  185.721
   9031.12  186.481
   9043.59  187.243
   9056.08  188.009
   9068.59  188.778
   9081.12  189.550
   9093.66  190.326
   9106.22  191.104
   9118.80  191.886
   9131.40  192.671
   9144.01  193.458
   9156.64  194.249
   9169.29  195.044
   9181.95  195.842
   9194.64  196.643
   9207.34  197.448
   9220.05  198.256
   9232.79  199.067
   9245.54  199.881
   9258.31  200.699
   9271.10  201.520
   9283.91  202.344
   9296.73  203.171
   9309.57  204.003
   9322.43  204.838
   9335.31  205.676
   9348.20  206.518
   9361.12  207.362
   9374.05  208.211
   9386.99  209.063
   9399.96  209.918
   9412.94  210.777
   9425.95  211.640
   9438.97  212.506
   9452.00  213.375
   9465.06  214.249
   9478.13  215.127
   9491.23  216.007
   9504.34  216.892
   9517.46  217.780
   9530.61  218.672
   9543.77  219.568
   9556.96  220.466
   9570.16  221.369
   9583.38  222.276
   9596.61  223.186
   9609.87  224.099
   9623.14  225.018
   9636.44  225.939
   9649.75  226.865
   9663.08  227.794
   9676.42  228.727
   9689.79  229.665
   9703.17  230.605
   9716.58  231.549
   9730.00  232.498
   9743.44  233.450
   9756.89  234.406
   9770.37  235.367
   9783.87  236.331
   9797.38  237.300
   9810.91  238.272
   9824.47  239.248
   9838.04  240.229
   9851.63  241.213
   9865.23  242.201
   9878.86  243.193
   9892.50  244.189
   9906.17  245.190
   9919.85  246.194
   9933.55  247.203
   9947.28  248.217
   9961.02  249.234
   9974.77  250.256
   9988.55  251.282
   10002.3  252.311
   10016.2  253.346
   10030.0  254.384
   10038.1  254.995
   10046.2  255.607
   10054.4  256.221
   10062.5  256.835
   10070.7  257.452
   10078.8  258.069
   10087.0  258.689
   10095.1  259.311
   10103.3  259.934
   10111.5  260.558
   10119.6  261.184
   10127.8  261.812
   10136.0  262.440
   10144.2  263.071
   10152.4  263.702
   10160.7  264.336
   10168.9  264.971
   10177.1  265.607
   10185.3  266.245
   10193.6  266.884
   10201.8  267.525
   10210.1  268.168
   10218.4  268.812
   10226.6  269.457
   10234.9  270.104
   10243.2  270.753
   10251.5  271.403
   10259.8  272.055
   10268.1  272.709
   10276.4  273.364
   10284.7  274.021
   10293.0  274.679
   10301.4  275.339
   10309.7  276.000
   10318.0  276.663
   10326.4  277.328
   10334.7  277.994
   10343.1  278.662
   10351.5  279.331
   10359.9  280.001
   10368.2  280.674
   10376.6  281.348
   10385.0  282.024
   10393.4  282.701
   10401.8  283.380
   10410.3  284.061
   10418.7  284.744
   10427.1  285.428
   10435.6  286.114
   10444.0  286.802
   10452.4  287.491
   10460.9  288.182
   10469.4  288.875
   10477.8  289.569
   10486.3  290.265
   10494.8  290.963
   10503.3  291.662
   10511.8  292.363
   10520.3  293.066
   10528.8  293.770
   10537.3  294.476
   10545.9  295.183
   10554.4  295.892
   10562.9  296.604
   10571.5  297.316
   10580.1  298.031
   10588.6  298.747
   10597.2  299.466
   10605.8  300.185
   10614.3  300.907
   10622.9  301.630
   10631.5  302.354
   10640.1  303.082
   10648.7  303.810
   10657.4  304.540
   10666.0  305.271
   10674.6  306.006
   10683.3  306.741
   10691.9  307.478
   10700.6  308.216
   10709.2  308.958
   10717.9  309.700
   10726.6  310.444
   10735.2  311.190
   10743.9  311.937
   10752.6  312.687
   10761.3  313.439
   10770.0  314.193
   10778.7  314.949
   10787.5  315.706
   10796.2  316.466
   10804.9  317.226
   10813.7  317.989
   10822.4  318.754
   10831.2  319.521
   10840.0  320.289
   10848.7  321.059
   10857.5  321.831
   10866.3  322.605
   10875.1  323.380
   10883.9  324.158
   10892.7  324.937
   10901.5  325.719
   10910.3  326.501
   10919.2  327.286
   10928.0  328.073
   10936.8  328.862
   10945.7  329.653
   10954.5  330.446
   10963.4  331.240
   10972.3  332.036
   10981.2  332.835
   10990.0  333.635
   10998.9  334.437
   11007.8  335.241
   11016.8  336.047
   11025.7  336.855
   11034.6  337.665
   11043.5  338.476
   11052.5  339.290
   11061.4  340.106
   11070.4  340.923
   11079.3  341.742
   11088.3  342.563
   11097.3  343.387
   11106.2  344.213
   11115.2  345.041
   11124.2  345.871
   11133.2  346.704
   11142.2  347.538
   11151.2  348.374
   11160.3  349.212
   11169.3  350.052
   11178.3  350.894
   11187.4  351.738
   11196.4  352.584
   11205.5  353.432
   11214.6  354.282
   11223.6  355.134
   11232.7  355.988
   11241.8  356.844
   11250.9  357.703
   11260.0  358.563
   11269.1  359.425
   11278.3  360.289
   11287.4  361.156
   11296.5  362.025
   11305.7  362.896
   11314.8  363.769
   11324.0  364.644
   11333.1  365.522
   11342.3  366.401
   11351.5  367.282
   11360.7  368.166
   11369.9  369.052
   11379.1  369.939
   11388.3  370.829
   11397.5  371.721
   11406.7  372.615
   11415.9  373.511
   11425.2  374.409
   11434.4  375.309
   11443.7  376.212
   11452.9  377.117
   11462.2  378.024
   11471.5  378.933
   11480.8  379.845
   11490.1  380.759
   11499.4  381.675
   11508.7  382.594
   11518.0  383.514
   11527.3  384.436
   11536.6  385.362
   11546.0  386.289
   11555.3  387.218
   11564.7  388.149
   11574.0  389.083
   11583.4  390.019
   11592.8  390.957
   11602.1  391.897
   11611.5  392.840
   11620.9  393.785
   11630.3  394.732
   11639.7  395.681
   11649.2  396.632
   11658.6  397.588
   11668.0  398.544
   11677.5  399.503
   11686.9  400.465
   11696.4  401.429
   11705.8  402.395
   11715.3  403.363
   11724.8  404.334
   11734.3  405.307
   11743.8  406.282
   11753.3  407.260
   11762.8  408.239
   11772.3  409.221
   11781.8  410.206
   11791.4  411.193
   11800.9  412.182
   11810.5  413.173
   11820.0  414.168
   11829.6  415.164
   11839.2  416.163
   11848.7  417.164
   11858.3  418.169
   11867.9  419.176
   11877.5  420.184
   11887.1  421.195
   11896.8  422.209
   11906.4  423.225
   11916.0  424.244
   11925.7  425.264
   11935.3  426.287
   11945.0  427.314
   11954.6  428.342
   11964.3  429.372
   11974.0  430.405
   11983.7  431.441
   11993.4  432.479
   12003.1  433.519
   12012.8  434.562
   12022.5  435.607
   12032.3  436.656
   12042.0  437.706
   12051.7  438.759
   12061.5  439.815
   12071.3  440.874
   12081.0  441.935
   12090.8  442.998
   12100.6  444.064
   12110.4  445.133
   12120.2  446.203
   12130.0  447.277
   12139.8  448.352
   12149.6  449.431
   12159.5  450.513
   12169.3  451.596
   12179.1  452.682
   12189.0  453.771
   12198.9  454.863
   12208.7  455.956
   12218.6  457.053
   12228.5  458.152
   12238.4  459.256
   12248.3  460.361
   12258.2  461.468
   12268.1  462.579
   12278.1  463.691
   12288.0  464.808
   12297.9  465.926
   12307.9  467.047
   12317.9  468.170
   12327.8  469.297
   12337.8  470.426
   12347.8  471.557
   12357.8  472.691
   12367.8  473.828
   12377.8  474.969
   12387.8  476.111
   12397.8  477.255
   12407.9  478.403
   12417.9  479.554
   12428.0  480.708
   12438.0  481.865
   12448.1  483.025
   12458.2  484.188
   12468.2  485.353
   12478.3  486.521
   12488.4  487.692
   12498.5  488.865
   12508.6  490.042
   12518.8  491.221
   12528.9  492.403
   12539.0  493.587
   12549.2  494.775
   12559.3  495.965
   12569.5  497.158
   12579.7  498.354
   12589.9  499.553
   12600.0  500.755
   12610.2  501.959
   12620.4  503.166
   12630.7  504.377
   12640.9  505.591
   12651.1  506.808
   12661.3  508.027
   12671.6  509.249
   12681.8  510.475
   12692.1  511.703
   12702.4  512.934
   12712.7  514.168
   12723.0  515.405
   12733.2  516.645
   12743.6  517.887
   12753.9  519.133
   12764.2  520.381
   12774.5  521.633
   12784.9  522.888
   12795.2  524.145
   12805.6  525.405
   12815.9  526.669
   12826.3  527.936
   12836.7  529.206
   12847.1  530.479
   12857.5  531.756
   12867.9  533.035
   12878.3  534.317
   12888.7  535.602
   12899.1  536.890
   12909.6  538.182
   12920.0  539.477
   12930.5  540.774
   12940.9  542.074
   12951.4  543.379
   12961.9  544.685
   12972.4  545.995
   12982.9  547.307
   12993.4  548.623
   13003.9  549.943
   13014.4  551.265
   13024.9  552.590
   13035.5  553.918
   13046.0  555.252
   13056.6  556.587
   13067.2  557.925
   13077.7  559.267
   13088.3  560.613
   13098.9  561.961
   13109.5  563.312
   13120.1  564.666
   13130.7  566.024
   13141.4  567.385
   13152.0  568.749
   13162.6  570.116
   13173.3  571.486
   13184.0  572.861
   13194.6  574.238
   13205.3  575.618
   13216.0  577.001
   13226.7  578.388
   13237.4  579.778
   13248.1  581.172
   13258.8  582.570
   13269.6  583.972
   13280.3  585.377
   13291.0  586.784
   13301.8  588.196
   13312.6  589.610
   13323.3  591.029
   13334.1  592.450
   13344.9  593.874
   13355.7  595.302
   13366.5  596.734
   13377.3  598.169
   13388.2  599.606
   13399.0  601.048
   13409.8  602.492
   13420.7  603.941
   13431.5  605.393
   13442.4  606.848
   13453.3  608.306
   13464.2  609.769
   13475.1  611.235
   13486.0  612.704
   13496.9  614.177
   13507.8  615.654
   13518.8  617.134
   13529.7  618.617
   13540.6  620.103
   13551.6  621.594
   13562.6  623.088
   13573.5  624.585
   13584.5  626.085
   13595.5  627.589
   13606.5  629.098
   13617.5  630.609
   13628.6  632.124
   13639.6  633.642
   13650.6  635.165
   13661.7  636.690
   13672.7  638.219
   13683.8  639.753
   13694.9  641.292
   13705.9  642.833
   13717.0  644.378
   13728.1  645.926
   13739.2  647.478
   13750.4  649.035
   13761.5  650.594
   13772.6  652.157
   13783.8  653.724
   13794.9  655.295
   13806.1  656.869
   13817.3  658.447
   13828.4  660.028
   13839.6  661.613
   13850.8  663.203
   13862.0  664.795
   13873.3  666.392
   13884.5  667.991
   13895.7  669.597
   13907.0  671.206
   13918.2  672.818
   13929.5  674.435
   13940.8  676.057
   13952.0  677.680
   13963.3  679.308
   13974.6  680.940
   13985.9  682.576
   13997.3  684.216
   14008.6  685.859
   14019.9  687.506
   14031.3  689.157
   14042.6  690.813
   14054.0  692.472
   14065.4  694.134
   14076.7  695.801
   14088.1  697.472
   14099.5  699.146
   14111.0  700.824
   14122.4  702.506
   14133.8  704.193
   14145.2  705.885
   14156.7  707.579
   14168.1  709.277
   14179.6  710.980
   14191.1  712.688
   14202.6  714.398
   14214.1  716.112
   14225.6  717.830
   14237.1  719.554
   14248.6  721.280
   14260.1  723.011
   14271.7  724.745
   14283.2  726.483
   14294.8  728.227
   14306.3  729.974
   14317.9  731.724
   14329.5  733.479
   14341.1  735.239
   14352.7  737.003
   14364.3  738.772
   14376.0  740.546
   14387.6  742.324
   14399.2  744.107
   14410.9  745.893
   14422.5  747.683
   14434.2  749.477
   14445.9  751.277
   14457.6  753.080
   14469.3  754.886
   14481.0  756.697
   14492.7  758.514
   14504.4  760.333
   14516.2  762.157
   14527.9  763.985
   14539.7  765.817
   14551.5  767.655
   14563.2  769.496
   14575.0  771.341
   14586.8  773.191
   14598.6  775.047
   14610.4  776.906
   14622.3  778.769
   14634.1  780.637
   14645.9  782.510
   14657.8  784.386
   14669.6  786.267
   14681.5  788.152
   14693.4  790.042
   14705.3  791.936
   14717.2  793.834
   14729.1  795.737
   14741.0  797.644
   14752.9  799.556
   14764.9  801.472
   14776.8  803.393
   14788.8  805.317
   14800.8  807.248
   14812.7  809.182
   14824.7  811.121
   14836.7  813.066
   14848.7  815.015
   14860.7  816.970
   14872.8  818.928
   14884.8  820.891
   14896.9  822.858
   14908.9  824.831
   14921.0  826.808
   14933.0  828.788
   14945.1  830.774
   14957.2  832.766
   14969.3  834.760
   14981.4  836.760
   14993.6  838.764
   15005.7  840.773
   15017.8  842.790
   15030.0  844.810
   15038.6  846.247
   15047.3  847.686
   15055.9  849.130
   15064.6  850.575
   15073.2  852.022
   15081.9  853.474
   15090.6  854.926
   15099.2  856.381
   15107.9  857.838
   15116.6  859.299
   15125.3  860.761
   15134.0  862.225
   15142.6  863.692
   15151.3  865.162
   15160.0  866.634
   15168.8  868.108
   15177.5  869.584
   15186.2  871.065
   15194.9  872.546
   15203.6  874.029
   15212.4  875.517
   15221.1  877.006
   15229.9  878.497
   15238.6  879.990
   15247.4  881.488
   15256.1  882.986
   15264.9  884.487
   15273.7  885.990
   15282.4  887.497
   15291.2  889.006
   15300.0  890.517
   15308.8  892.031
   15317.6  893.550
   15326.4  895.069
   15335.2  896.591
   15344.0  898.115
   15352.8  899.643
   15361.6  901.173
   15370.5  902.705
   15379.3  904.241
   15388.1  905.778
   15397.0  907.317
   15405.8  908.859
   15414.7  910.405
   15423.5  911.952
   15432.4  913.502
   15441.3  915.054
   15450.1  916.610
   15459.0  918.167
   15467.9  919.727
   15476.8  921.291
   15485.7  922.856
   15494.6  924.423
   15503.5  925.993
   15512.4  927.567
   15521.3  929.143
   15530.2  930.720
   15539.1  932.300
   15548.1  933.886
   15557.0  935.473
   15565.9  937.063
   15574.9  938.655
   15583.8  940.252
   15592.8  941.850
   15601.7  943.450
   15610.7  945.053
   15619.7  946.660
   15628.6  948.269
   15637.6  949.879
   15646.6  951.495
   15655.6  953.111
   15664.6  954.729
   15673.6  956.351
   15682.6  957.977
   15691.6  959.604
   15700.6  961.233
   15709.6  962.865
   15718.7  964.502
   15727.7  966.139
   15736.7  967.779
   15745.8  969.423
   15754.8  971.069
   15763.9  972.717
   15772.9  974.368
   15782.0  976.023
   15791.1  977.680
   15800.1  979.339
   15809.2  981.002
   15818.3  982.670
   15827.4  984.338
   15836.5  986.009
   15845.6  987.683
   15854.7  989.362
   15863.8  991.041
   15872.9  992.723
   15882.0  994.408
   15891.1  996.097
   15900.3  997.788
   15909.4  999.481
   15918.5  1001.18
   15927.7  1002.88
   15936.8  1004.58
   15946.0  1006.28
   15955.2  1007.99
   15964.3  1009.70
   15973.5  1011.41
   15982.7  1013.13
   15991.9  1014.85
   16001.0  1016.57
   16010.2  1018.29
   16019.4  1020.02
   16028.6  1021.75
   16037.8  1023.48
   16047.1  1025.22
   16056.3  1026.96
   16065.5  1028.70
   16074.7  1030.45
   16084.0  1032.20
   16093.2  1033.95
   16102.5  1035.70
   16111.7  1037.46
   16121.0  1039.22
   16130.2  1040.98
   16139.5  1042.75
   16148.8  1044.51
   16158.0  1046.29
   16167.3  1048.06
   16176.6  1049.84
   16185.9  1051.62
   16195.2  1053.40
   16204.5  1055.19
   16213.8  1056.98
   16223.1  1058.77
   16232.5  1060.56
   16241.8  1062.36
   16251.1  1064.16
   16260.5  1065.96
   16269.8  1067.77
   16279.1  1069.58
   16288.5  1071.39
   16297.9  1073.20
   16307.2  1075.02
   16316.6  1076.85
   16326.0  1078.67
   16335.3  1080.50
   16344.7  1082.33
   16354.1  1084.17
   16363.5  1086.00
   16372.9  1087.85
   16382.3  1089.69
   16391.7  1091.53
   16401.2  1093.38
   16410.6  1095.24
   16420.0  1097.09
   16429.4  1098.95
   16438.9  1100.81
   16448.3  1102.68
   16457.8  1104.55
   16467.2  1106.42
   16476.7  1108.29
   16486.2  1110.17
   16495.6  1112.05
   16505.1  1113.93
   16514.6  1115.82
   16524.1  1117.70
   16533.6  1119.60
   16543.1  1121.49
   16552.6  1123.39
   16562.1  1125.29
   16571.6  1127.20
   16581.1  1129.10
   16590.6  1131.02
   16600.2  1132.93
   16609.7  1134.85
   16619.3  1136.77
   16628.8  1138.70
   16638.4  1140.62
   16647.9  1142.55
   16657.5  1144.49
   16667.1  1146.42
   16676.6  1148.36
   16686.2  1150.31
   16695.8  1152.26
   16705.4  1154.20
   16715.0  1156.16
   16724.6  1158.11
   16734.2  1160.07
   16743.8  1162.03
   16753.4  1164.00
   16763.1  1165.97
   16772.7  1167.94
   16782.3  1169.91
   16792.0  1171.89
   16801.6  1173.87
   16811.3  1175.86
   16820.9  1177.85
   16830.6  1179.84
   16840.3  1181.83
   16849.9  1183.83
   16859.6  1185.83
   16869.3  1187.84
   16879.0  1189.85
   16888.7  1191.86
   16898.4  1193.87
   16908.1  1195.89
   16917.8  1197.91
   16927.5  1199.94
   16937.3  1201.96
   16947.0  1204.00
   16956.7  1206.03
   16966.5  1208.07
   16976.2  1210.11
   16986.0  1212.16
   16995.7  1214.20
   17005.5  1216.25
   17015.3  1218.31
   17025.0  1220.37
   17034.8  1222.43
   17044.6  1224.49
   17054.4  1226.56
   17064.2  1228.63
   17074.0  1230.70
   17083.8  1232.78
   17093.6  1234.86
   17103.5  1236.95
   17113.3  1239.03
   17123.1  1241.13
   17133.0  1243.22
   17142.8  1245.32
   17152.6  1247.43
   17162.5  1249.53
   17172.4  1251.64
   17182.2  1253.76
   17192.1  1255.87
   17202.0  1258.00
   17211.9  1260.12
   17221.7  1262.25
   17231.6  1264.38
   17241.5  1266.51
   17251.4  1268.65
   17261.4  1270.79
   17271.3  1272.93
   17281.2  1275.08
   17291.1  1277.23
   17301.1  1279.39
   17311.0  1281.55
   17320.9  1283.71
   17330.9  1285.87
   17340.9  1288.04
   17350.8  1290.21
   17360.8  1292.39
   17370.8  1294.57
   17380.7  1296.75
   17390.7  1298.94
   17400.7  1301.13
   17410.7  1303.32
   17420.7  1305.52
   17430.7  1307.72
   17440.7  1309.93
   17450.8  1312.14
   17460.8  1314.35
   17470.8  1316.57
   17480.9  1318.79
   17490.9  1321.01
   17500.9  1323.23
   17511.0  1325.47
   17521.1  1327.70
   17531.1  1329.94
   17541.2  1332.18
   17551.3  1334.42
   17561.4  1336.67
   17571.5  1338.92
   17581.6  1341.18
   17591.7  1343.44
   17601.8  1345.70
   17611.9  1347.96
   17622.0  1350.24
   17632.1  1352.51
   17642.2  1354.79
   17652.4  1357.07
   17662.5  1359.35
   17672.7  1361.64
   17682.8  1363.93
   17693.0  1366.23
   17703.1  1368.53
   17713.3  1370.83
   17723.5  1373.14
   17733.7  1375.46
   17743.9  1377.77
   17754.1  1380.09
   17764.3  1382.41
   17774.5  1384.74
   17784.7  1387.07
   17794.9  1389.40
   17805.1  1391.74
   17815.4  1394.09
   17825.6  1396.43
   17835.8  1398.78
   17846.1  1401.13
   17856.3  1403.49
   17866.6  1405.85
   17876.9  1408.21
   17887.1  1410.58
   17897.4  1412.95
   17907.7  1415.33
   17918.0  1417.71
   17928.3  1420.09
   17938.6  1422.48
   17948.9  1424.87
   17959.2  1427.26
   17969.5  1429.66
   17979.8  1432.07
   17990.2  1434.47
   18000.5  1436.89
   18010.8  1439.30
   18021.2  1441.72
   18031.5  1444.14
   18041.9  1446.57
   18052.3  1449.00
   18062.6  1451.44
   18073.0  1453.87
   18083.4  1456.32
   18093.8  1458.76
   18104.2  1461.21
   18114.6  1463.67
   18125.0  1466.13
   18135.4  1468.59
   18145.8  1471.05
   18156.2  1473.52
   18166.7  1476.00
   18177.1  1478.47
   18187.6  1480.96
   18198.0  1483.44
   18208.5  1485.93
   18218.9  1488.42
   18229.4  1490.92
   18239.9  1493.42
   18250.3  1495.93
   18260.8  1498.44
   18271.3  1500.96
   18281.8  1503.47
   18292.3  1506.00
   18302.8  1508.52
   18313.3  1511.06
   18323.9  1513.59
   18334.4  1516.13
   18344.9  1518.67
   18355.5  1521.22
   18366.0  1523.77
   18376.6  1526.33
   18387.1  1528.89
   18397.7  1531.45
   18408.3  1534.02
   18418.8  1536.59
   18429.4  1539.16
   18440.0  1541.74
   18450.6  1544.33
   18461.2  1546.92
   18471.8  1549.51
   18482.4  1552.10
   18493.0  1554.70
   18503.7  1557.31
   18514.3  1559.92
   18524.9  1562.53
   18535.6  1565.14
   18546.2  1567.76
   18556.9  1570.39
   18567.5  1573.02
   18578.2  1575.66
   18588.9  1578.30
   18599.6  1580.94
   18610.2  1583.59
   18620.9  1586.24
   18631.6  1588.90
   18642.3  1591.56
   18653.1  1594.23
   18663.8  1596.90
   18674.5  1599.57
   18685.2  1602.25
   18696.0  1604.93
   18706.7  1607.61
   18717.4  1610.31
   18728.2  1613.00
   18739.0  1615.70
   18749.7  1618.40
   18760.5  1621.11
   18771.3  1623.82
   18782.1  1626.53
   18792.9  1629.26
   18803.6  1631.98
   18814.5  1634.71
   18825.3  1637.44
   18836.1  1640.18
   18846.9  1642.92
   18857.7  1645.66
   18868.6  1648.42
   18879.4  1651.17
   18890.2  1653.93
   18901.1  1656.70
   18912.0  1659.47
   18922.8  1662.24
   18933.7  1665.02
   18944.6  1667.80
   18955.5  1670.59
   18966.4  1673.38
   18977.2  1676.18
   18988.2  1678.97
   18999.1  1681.78
   19010.0  1684.59
   19020.9  1687.40
   19031.8  1690.22
   19042.8  1693.04
   19053.7  1695.86
   19064.6  1698.69
   19075.6  1701.53
   19086.6  1704.37
   19097.5  1707.21
   19108.5  1710.06
   19119.5  1712.91
   19130.5  1715.77
   19141.5  1718.63
   19152.4  1721.49
   19163.5  1724.37
   19174.5  1727.25
   19185.5  1730.13
   19196.5  1733.01
   19207.5  1735.91
   19218.6  1738.80
   19229.6  1741.70
   19240.7  1744.60
   19251.7  1747.51
   19262.8  1750.42
   19273.8  1753.34
   19284.9  1756.27
   19296.0  1759.19
   19307.1  1762.12
   19318.2  1765.06
   19329.3  1768.00
   19340.4  1770.94
   19351.5  1773.89
   19362.6  1776.84
   19373.7  1779.80
   19384.9  1782.77
   19396.0  1785.73
   19407.1  1788.70
   19418.3  1791.68
   19429.4  1794.66
   19440.6  1797.65
   19451.8  1800.64
   19463.0  1803.64
   19474.1  1806.64
   19485.3  1809.65
   19496.5  1812.66
   19507.7  1815.68
   19518.9  1818.70
   19530.1  1821.72
   19541.4  1824.76
   19552.6  1827.79
   19563.8  1830.83
   19575.1  1833.88
   19586.3  1836.93
   19597.6  1839.98
   19608.8  1843.04
   19620.1  1846.10
   19631.4  1849.18
   19642.6  1852.25
   19653.9  1855.33
   19665.2  1858.41
   19676.5  1861.50
   19687.8  1864.59
   19699.1  1867.69
   19710.4  1870.79
   19721.8  1873.90
   19733.1  1877.01
   19744.4  1880.12
   19755.8  1883.25
   19767.1  1886.37
   19778.5  1889.50
   19789.9  1892.64
   19801.2  1895.78
   19812.6  1898.93
   19824.0  1902.08
   19835.4  1905.24
   19846.8  1908.40
   19858.2  1911.57
   19869.6  1914.74
   19881.0  1917.92
   19892.4  1921.10
   19903.8  1924.28
   19915.3  1927.47
   19926.7  1930.67
   19938.2  1933.87
   19949.6  1937.07
   19961.1  1940.28
   19972.6  1943.50
   19984.0  1946.72
   19995.5  1949.95
   20007.0  1953.18
   20018.5  1956.42
   20030.0  1959.67
   20038.9  1962.19
   20047.9  1964.72
   20056.8  1967.25
   20065.7  1969.78
   20074.7  1972.32
   20083.6  1974.86
   20092.6  1977.40
   20101.5  1979.95
   20110.5  1982.49
   20119.5  1985.05
   20128.4  1987.60
   20137.4  1990.16
   20146.4  1992.72
   20155.4  1995.29
   20164.4  1997.85
   20173.3  2000.42
   20182.3  2003.00
   20191.3  2005.58
   20200.3  2008.16
   20209.3  2010.74
   20218.3  2013.32
   20227.4  2015.92
   20236.4  2018.51
   20245.4  2021.10
   20254.4  2023.70
   20263.5  2026.30
   20272.5  2028.90
   20281.5  2031.51
   20290.6  2034.12
   20299.6  2036.74
   20308.7  2039.36
   20317.7  2041.97
   20326.8  2044.60
   20335.8  2047.22
   20344.9  2049.85
   20354.0  2052.48
   20363.0  2055.12
   20372.1  2057.76
   20381.2  2060.40
   20390.3  2063.05
   20399.4  2065.69
   20408.5  2068.34
   20417.6  2071.00
   20426.7  2073.66
   20435.8  2076.32
   20444.9  2078.98
   20454.0  2081.65
   20463.1  2084.32
   20472.2  2087.00
   20481.4  2089.67
   20490.5  2092.35
   20499.6  2095.04
   20508.8  2097.72
   20517.9  2100.41
   20527.1  2103.11
   20536.2  2105.80
   20545.4  2108.50
   20554.5  2111.20
   20563.7  2113.91
   20572.9  2116.62
   20582.0  2119.33
   20591.2  2122.04
   20600.4  2124.76
   20609.6  2127.49
   20618.8  2130.21
   20627.9  2132.94
   20637.1  2135.67
   20646.3  2138.40
   20655.5  2141.14
   20664.8  2143.88
   20674.0  2146.62
   20683.2  2149.37
   20692.4  2152.12
   20701.6  2154.88
   20710.8  2157.63
   20720.1  2160.39
   20729.3  2163.16
   20738.6  2165.92
   20747.8  2168.69
   20757.1  2171.47
   20766.3  2174.24
   20775.6  2177.03
   20784.8  2179.81
   20794.1  2182.60
   20803.4  2185.39
   20812.6  2188.18
   20821.9  2190.98
   20831.2  2193.78
   20840.5  2196.58
   20849.8  2199.39
   20859.1  2202.20
   20868.4  2205.02
   20877.7  2207.84
   20887.0  2210.65
   20896.3  2213.48
   20905.6  2216.31
   20914.9  2219.13
   20924.2  2221.97
   20933.6  2224.81
   20942.9  2227.65
   20952.2  2230.49
   20961.6  2233.34
   20970.9  2236.19
   20980.3  2239.04
   20989.6  2241.90
   20999.0  2244.76
   21008.3  2247.62
   21017.7  2250.49
   21027.1  2253.36
   21036.5  2256.23
   21045.8  2259.11
   21055.2  2261.99
   21064.6  2264.87
   21074.0  2267.76
   21083.4  2270.65
   21092.8  2273.54
   21102.2  2276.44
   21111.6  2279.34
   21121.0  2282.24
   21130.4  2285.15
   21139.8  2288.06
   21149.3  2290.98
   21158.7  2293.90
   21168.1  2296.82
   21177.6  2299.74
   21187.0  2302.67
   21196.4  2305.61
   21205.9  2308.54
   21215.3  2311.48
   21224.8  2314.42
   21234.3  2317.37
   21243.7  2320.32
   21253.2  2323.27
   21262.7  2326.22
   21272.2  2329.19
   21281.6  2332.15
   21291.1  2335.11
   21300.6  2338.08
   21310.1  2341.06
   21319.6  2344.03
   21329.1  2347.01
   21338.6  2349.99
   21348.1  2352.98
   21357.7  2355.97
   21367.2  2358.97
   21376.7  2361.96
   21386.2  2364.96
   21395.8  2367.97
   21405.3  2370.97
   21414.8  2373.99
   21424.4  2377.00
   21433.9  2380.02
   21443.5  2383.04
   21453.1  2386.07
   21462.6  2389.09
   21472.2  2392.13
   21481.8  2395.16
   21491.3  2398.20
   21500.9  2401.25
   21510.5  2404.29
   21520.1  2407.34
   21529.7  2410.40
   21539.3  2413.45
   21548.9  2416.51
   21558.5  2419.58
   21568.1  2422.65
   21577.7  2425.72
   21587.3  2428.79
   21597.0  2431.87
   21606.6  2434.95
   21616.2  2438.04
   21625.9  2441.13
   21635.5  2444.22
   21645.1  2447.32
   21654.8  2450.41
   21664.4  2453.51
   21674.1  2456.62
   21683.8  2459.73
   21693.4  2462.85
   21703.1  2465.97
   21712.8  2469.08
   21722.5  2472.21
   21732.1  2475.34
   21741.8  2478.47
   21751.5  2481.61
   21761.2  2484.74
   21770.9  2487.88
   21780.6  2491.03
   21790.3  2494.18
   21800.0  2497.34
   21809.8  2500.50
   21819.5  2503.66
   21829.2  2506.82
   21838.9  2509.99
   21848.7  2513.16
   21858.4  2516.34
   21868.2  2519.52
   21877.9  2522.70
   21887.7  2525.89
   21897.4  2529.08
   21907.2  2532.28
   21916.9  2535.47
   21926.7  2538.68
   21936.5  2541.88
   21946.3  2545.09
   21956.1  2548.30
   21965.8  2551.52
   21975.6  2554.74
   21985.4  2557.96
   21995.2  2561.19
   22005.0  2564.42
   22014.8  2567.65
   22024.7  2570.89
   22034.5  2574.13
   22044.3  2577.38
   22054.1  2580.63
   22064.0  2583.88
   22073.8  2587.14
   22083.6  2590.40
   22093.5  2593.66
   22103.3  2596.93
   22113.2  2600.20
   22123.0  2603.47
   22132.9  2606.75
   22142.8  2610.04
   22152.6  2613.32
   22162.5  2616.62
   22172.4  2619.91
   22182.3  2623.21
   22192.2  2626.51
   22202.1  2629.82
   22212.0  2633.13
   22221.9  2636.45
   22231.8  2639.76
   22241.7  2643.08
   22251.6  2646.41
   22261.5  2649.74
   22271.4  2653.07
   22281.4  2656.41
   22291.3  2659.75
   22301.2  2663.09
   22311.2  2666.44
   22321.1  2669.79
   22331.1  2673.14
   22341.0  2676.50
   22351.0  2679.87
   22360.9  2683.24
   22370.9  2686.60
   22380.9  2689.98
   22390.9  2693.36
   22400.8  2696.74
   22410.8  2700.12
   22420.8  2703.51
   22430.8  2706.90
   22440.8  2710.30
   22450.8  2713.70
   22460.8  2717.11
   22470.8  2720.51
   22480.9  2723.93
   22490.9  2727.34
   22500.9  2730.76
   22510.9  2734.19
   22521.0  2737.62
   22531.0  2741.05
   22541.1  2744.49
   22551.1  2747.93
   22561.2  2751.37
   22571.2  2754.82
   22581.3  2758.27
   22591.3  2761.72
   22601.4  2765.18
   22611.5  2768.64
   22621.6  2772.11
   22631.7  2775.58
   22641.7  2779.06
   22651.8  2782.53
   22661.9  2786.02
   22672.0  2789.50
   22682.1  2792.99
   22692.3  2796.49
   22702.4  2799.98
   22712.5  2803.48
   22722.6  2806.99
   22732.7  2810.50
   22742.9  2814.01
   22753.0  2817.53
   22763.2  2821.05
   22773.3  2824.58
   22783.5  2828.11
   22793.6  2831.64
   22803.8  2835.17
   22813.9  2838.72
   22824.1  2842.26
   22834.3  2845.81
   22844.5  2849.36
   22854.7  2852.92
   22864.8  2856.48
   22875.0  2860.05
   22885.2  2863.62
   22895.4  2867.19
   22905.6  2870.77
   22915.9  2874.35
   22926.1  2877.94
   22936.3  2881.53
   22946.5  2885.12
   22956.7  2888.72
   22967.0  2892.32
   22977.2  2895.93
   22987.5  2899.53
   22997.7  2903.15
   23008.0  2906.77
   23018.2  2910.39
   23028.5  2914.02
   23038.7  2917.64
   23049.0  2921.28
   23059.3  2924.92
   23069.6  2928.56
   23079.8  2932.20
   23090.1  2935.85
   23100.4  2939.51
   23110.7  2943.16
   23121.0  2946.83
   23131.3  2950.49
   23141.7  2954.16
   23152.0  2957.84
   23162.3  2961.51
   23172.6  2965.20
   23182.9  2968.88
   23193.3  2972.57
   23203.6  2976.27
   23214.0  2979.96
   23224.3  2983.66
   23234.7  2987.37
   23245.0  2991.08
   23255.4  2994.80
   23265.8  2998.52
   23276.1  3002.24
   23286.5  3005.97
   23296.9  3009.70
   23307.3  3013.44
   23317.7  3017.17
   23328.0  3020.92
   23338.4  3024.67
   23348.9  3028.42
   23359.3  3032.18
   23369.7  3035.94
   23380.1  3039.70
   23390.5  3043.47
   23400.9  3047.24
   23411.4  3051.02
   23421.8  3054.80
   23432.2  3058.58
   23442.7  3062.37
   23453.1  3066.17
   23463.6  3069.96
   23474.1  3073.76
   23484.5  3077.57
   23495.0  3081.38
   23505.5  3085.19
   23515.9  3089.01
   23526.4  3092.83
   23536.9  3096.65
   23547.4  3100.49
   23557.9  3104.32
   23568.4  3108.16
   23578.9  3112.00
   23589.4  3115.85
   23599.9  3119.70
   23610.5  3123.56
   23621.0  3127.42
   23631.5  3131.28
   23642.1  3135.15
   23652.6  3139.02
   23663.1  3142.90
   23673.7  3146.79
   23684.2  3150.67
   23694.8  3154.56
   23705.4  3158.46
   23715.9  3162.35
   23726.5  3166.25
   23737.1  3170.16
   23747.7  3174.07
   23758.2  3177.99
   23768.8  3181.91
   23779.4  3185.83
   23790.0  3189.76
   23800.6  3193.69
   23811.2  3197.63
   23821.9  3201.56
   23832.5  3205.51
   23843.1  3209.46
   23853.7  3213.41
   23864.4  3217.37
   23875.0  3221.33
   23885.7  3225.30
   23896.3  3229.27
   23907.0  3233.24
   23917.6  3237.22
   23928.3  3241.21
   23938.9  3245.19
   23949.6  3249.18
   23960.3  3253.18
   23971.0  3257.18
   23981.7  3261.18
   23992.3  3265.19
   24003.0  3269.21
   24013.7  3273.22
   24024.4  3277.25
   24035.2  3281.28
   24045.9  3285.31
   24056.6  3289.34
   24067.3  3293.38
   24078.0  3297.43
   24088.8  3301.48
   24099.5  3305.53
   24110.3  3309.59
   24121.0  3313.65
   24131.8  3317.71
   24142.5  3321.79
   24153.3  3325.86
   24164.0  3329.94
   24174.8  3334.02
   24185.6  3338.11
   24196.4  3342.20
   24207.2  3346.30
   24218.0  3350.40
   24228.7  3354.50
   24239.5  3358.61
   24250.4  3362.72
   24261.2  3366.84
   24272.0  3370.96
   24282.8  3375.09
   24293.6  3379.22
   24304.5  3383.36
   24315.3  3387.49
   24326.1  3391.64
   24337.0  3395.79
   24347.8  3399.94
   24358.7  3404.09
   24369.5  3408.26
   24380.4  3412.42
   24391.3  3416.60
   24402.1  3420.78
   24413.0  3424.95
   24423.9  3429.14
   24434.8  3433.33
   24445.7  3437.52
   24456.6  3441.72
   24467.5  3445.93
   24478.4  3450.13
   24489.3  3454.34
   24500.2  3458.56
   24511.1  3462.78
   24522.1  3467.01
   24533.0  3471.24
   24543.9  3475.47
   24554.9  3479.71
   24565.8  3483.95
   24576.8  3488.20
   24587.7  3492.45
   24598.7  3496.71
   24609.7  3500.97
   24620.6  3505.23
   24631.6  3509.50
   24642.6  3513.77
   24653.6  3518.05
   24664.6  3522.34
   24675.6  3526.62
   24686.6  3530.91
   24697.6  3535.21
   24708.6  3539.51
   24719.6  3543.81
   24730.6  3548.13
   24741.6  3552.44
   24752.7  3556.75
   24763.7  3561.08
   24774.7  3565.41
   24785.8  3569.74
   24796.8  3574.08
   24807.9  3578.42
   24818.9  3582.77
   24830.0  3587.12
   24841.1  3591.48
   24852.1  3595.84
   24863.2  3600.20
   24874.3  3604.57
   24885.4  3608.94
   24896.5  3613.33
   24907.6  3617.71
   24918.7  3622.10
   24929.8  3626.49
   24940.9  3630.88
   24952.0  3635.29
   24963.2  3639.69
   24974.3  3644.10
   24985.4  3648.52
   24996.6  3652.93
   25007.7  3657.36
   25018.8  3661.79
   25030.0  3666.22
   25039.1  3669.83
   25048.1  3673.44
   25057.2  3677.04
   25066.3  3680.66
   25075.4  3684.28
   25084.5  3687.90
   25093.5  3691.52
   25102.6  3695.15
   25111.7  3698.78
   25120.8  3702.41
   25129.9  3706.05
   25139.0  3709.69
   25148.1  3713.33
   25157.3  3716.98
   25166.4  3720.63
   25175.5  3724.28
   25184.6  3727.94
   25193.7  3731.59
   25202.9  3735.26
   25212.0  3738.92
   25221.1  3742.59
   25230.3  3746.26
   25239.4  3749.93
   25248.6  3753.61
   25257.7  3757.29
   25266.9  3760.98
   25276.0  3764.67
   25285.2  3768.35
   25294.3  3772.04
   25303.5  3775.74
   25312.7  3779.44
   25321.8  3783.14
   25331.0  3786.85
   25340.2  3790.55
   25349.4  3794.26
   25358.5  3797.97
   25367.7  3801.69
   25376.9  3805.41
   25386.1  3809.14
   25395.3  3812.86
   25404.5  3816.59
   25413.7  3820.32
   25422.9  3824.06
   25432.1  3827.80
   25441.4  3831.54
   25450.6  3835.28
   25459.8  3839.02
   25469.0  3842.78
   25478.2  3846.53
   25487.5  3850.29
   25496.7  3854.05
   25506.0  3857.81
   25515.2  3861.57
   25524.4  3865.34
   25533.7  3869.12
   25542.9  3872.89
   25552.2  3876.67
   25561.4  3880.45
   25570.7  3884.23
   25580.0  3888.02
   25589.2  3891.82
   25598.5  3895.61
   25607.8  3899.41
   25617.1  3903.22
   25626.3  3907.02
   25635.6  3910.82
   25644.9  3914.64
   25654.2  3918.45
   25663.5  3922.27
   25672.8  3926.09
   25682.1  3929.92
   25691.4  3933.74
   25700.7  3937.57
   25710.0  3941.40
   25719.3  3945.24
   25728.7  3949.08
   25738.0  3952.92
   25747.3  3956.76
   25756.6  3960.61
   25766.0  3964.46
   25775.3  3968.32
   25784.6  3972.18
   25794.0  3976.04
   25803.3  3979.91
   25812.7  3983.77
   25822.0  3987.64
   25831.4  3991.51
   25840.7  3995.39
   25850.1  3999.27
   25859.5  4003.16
   25868.8  4007.04
   25878.2  4010.93
   25887.6  4014.82
   25897.0  4018.71
   25906.4  4022.61
   25915.7  4026.52
   25925.1  4030.42
   25934.5  4034.32
   25943.9  4038.24
   25953.3  4042.15
   25962.7  4046.07
   25972.1  4049.99
   25981.5  4053.92
   25991.0  4057.84
   26000.4  4061.77
   26009.8  4065.70
   26019.2  4069.64
   26028.6  4073.59
   26038.1  4077.53
   26047.5  4081.47
   26056.9  4085.42
   26066.4  4089.38
   26075.8  4093.33
   26085.3  4097.29
   26094.7  4101.26
   26104.2  4105.22
   26113.6  4109.19
   26123.1  4113.16
   26132.6  4117.14
   26142.0  4121.12
   26151.5  4125.10
   26161.0  4129.08
   26170.5  4133.07
   26179.9  4137.06
   26189.4  4141.05
   26198.9  4145.05
   26208.4  4149.05
   26217.9  4153.06
   26227.4  4157.06
   26236.9  4161.07
   26246.4  4165.09
   26255.9  4169.10
   26265.4  4173.12
   26274.9  4177.15
   26284.5  4181.17
   26294.0  4185.20
   26303.5  4189.23
   26313.0  4193.27
   26322.6  4197.31
   26332.1  4201.35
   26341.7  4205.39
   26351.2  4209.44
   26360.7  4213.49
   26370.3  4217.54
   26379.9  4221.60
   26389.4  4225.67
   26399.0  4229.72
   26408.5  4233.79
   26418.1  4237.87
   26427.7  4241.94
   26437.2  4246.02
   26446.8  4250.11
   26456.4  4254.20
   26466.0  4258.28
   26475.6  4262.37
   26485.2  4266.47
   26494.8  4270.57
   26504.4  4274.67
   26514.0  4278.78
   26523.6  4282.88
   26533.2  4286.99
   26542.8  4291.10
   26552.4  4295.22
   26562.0  4299.35
   26571.7  4303.47
   26581.3  4307.59
   26590.9  4311.72
   26600.6  4315.86
   26610.2  4320.00
   26619.8  4324.14
   26629.5  4328.28
   26639.1  4332.43
   26648.8  4336.57
   26658.4  4340.73
   26668.1  4344.89
   26677.8  4349.05
   26687.4  4353.21
   26697.1  4357.38
   26706.8  4361.54
   26716.4  4365.71
   26726.1  4369.89
   26735.8  4374.07
   26745.5  4378.25
   26755.2  4382.44
   26764.9  4386.62
   26774.6  4390.81
   26784.3  4395.01
   26794.0  4399.21
   26803.7  4403.41
   26813.4  4407.62
   26823.1  4411.82
   26832.8  4416.03
   26842.5  4420.25
   26852.3  4424.47
   26862.0  4428.69
   26871.7  4432.92
   26881.5  4437.15
   26891.2  4441.37
   26901.0  4445.61
   26910.7  4449.85
   26920.5  4454.09
   26930.2  4458.34
   26940.0  4462.59
   26949.7  4466.83
   26959.5  4471.09
   26969.3  4475.35
   26979.0  4479.61
   26988.8  4483.88
   26998.6  4488.15
   27008.4  4492.42
   27018.1  4496.69
   27027.9  4500.97
   27037.7  4505.25
   27047.5  4509.53
   27057.3  4513.82
   27067.1  4518.12
   27076.9  4522.40
   27086.7  4526.70
   27096.6  4531.00
   27106.4  4535.31
   27116.2  4539.62
   27126.0  4543.93
   27135.8  4548.23
   27145.7  4552.55
   27155.5  4556.87
   27165.4  4561.20
   27175.2  4565.53
   27185.0  4569.86
   27194.9  4574.18
   27204.7  4578.52
   27214.6  4582.86
   27224.5  4587.21
   27234.3  4591.55
   27244.2  4595.90
   27254.1  4600.26
   27263.9  4604.61
   27273.8  4608.97
   27283.7  4613.34
   27293.6  4617.71
   27303.5  4622.09
   27313.4  4626.46
   27323.3  4630.83
   27333.2  4635.22
   27343.1  4639.60
   27353.0  4643.99
   27362.9  4648.39
   27372.8  4652.78
   27382.7  4657.18
   27392.6  4661.58
   27402.6  4665.99
   27412.5  4670.40
   27422.4  4674.81
   27432.3  4679.23
   27442.3  4683.65
   27452.2  4688.06
   27462.2  4692.49
   27472.1  4696.92
   27482.1  4701.35
   27492.0  4705.79
   27502.0  4710.22
   27512.0  4714.66
   27521.9  4719.10
   27531.9  4723.55
   27541.9  4728.01
   27551.9  4732.46
   27561.8  4736.92
   27571.8  4741.38
   27581.8  4745.84
   27591.8  4750.31
   27601.8  4754.79
   27611.8  4759.26
   27621.8  4763.74
   27631.8  4768.21
   27641.8  4772.70
   27651.8  4777.19
   27661.9  4781.68
   27671.9  4786.18
   27681.9  4790.68
   27691.9  4795.17
   27702.0  4799.68
   27712.0  4804.19
   27722.0  4808.70
   27732.1  4813.22
   27742.1  4817.74
   27752.2  4822.27
   27762.2  4826.79
   27772.3  4831.32
   27782.4  4835.85
   27792.4  4840.39
   27802.5  4844.93
   27812.6  4849.48
   27822.7  4854.02
   27832.7  4858.57
   27842.8  4863.12
   27852.9  4867.68
   27863.0  4872.24
   27873.1  4876.81
   27883.2  4881.38
   27893.3  4885.94
   27903.4  4890.51
   27913.5  4895.09
   27923.6  4899.67
   27933.7  4904.26
   27943.9  4908.84
   27954.0  4913.43
   27964.1  4918.02
   27974.2  4922.62
   27984.4  4927.22
   27994.5  4931.82
   28004.7  4936.43
   28014.8  4941.04
   28025.0  4945.65
   28035.1  4950.27
   28045.3  4954.89
   28055.4  4959.51
   28065.6  4964.14
   28075.8  4968.77
   28085.9  4973.40
   28096.1  4978.04
   28106.3  4982.68
   28116.5  4987.32
   28126.7  4991.97
   28136.8  4996.62
   28147.0  5001.27
   28157.2  5005.93
   28167.4  5010.59
   28177.6  5015.26
   28187.9  5019.93
   28198.1  5024.60
   28208.3  5029.27
   28218.5  5033.95
   28228.7  5038.63
   28239.0  5043.32
   28249.2  5048.01
   28259.4  5052.70
   28269.7  5057.39
   28279.9  5062.09
   28290.2  5066.80
   28300.4  5071.50
   28310.7  5076.21
   28320.9  5080.93
   28331.2  5085.64
   28341.4  5090.35
   28351.7  5095.08
   28362.0  5099.81
   28372.3  5104.54
   28382.5  5109.27
   28392.8  5114.01
   28403.1  5118.74
   28413.4  5123.48
   28423.7  5128.23
   28434.0  5132.98
   28444.3  5137.73
   28454.6  5142.49
   28464.9  5147.24
   28475.2  5152.01
   28485.5  5156.77
   28495.9  5161.54
   28506.2  5166.32
   28516.5  5171.10
   28526.8  5175.87
   28537.2  5180.65
   28547.5  5185.44
   28557.9  5190.23
   28568.2  5195.02
   28578.6  5199.82
   28588.9  5204.62
   28599.3  5209.42
   28609.6  5214.23
   28620.0  5219.04
   28630.4  5223.86
   28640.7  5228.68
   28651.1  5233.51
   28661.5  5238.33
   28671.9  5243.16
   28682.3  5247.99
   28692.7  5252.83
   28703.1  5257.67
   28713.5  5262.52
   28723.9  5267.36
   28734.3  5272.21
   28744.7  5277.07
   28755.1  5281.92
   28765.5  5286.79
   28775.9  5291.65
   28786.4  5296.52
   28796.8  5301.38
   28807.2  5306.26
   28817.7  5311.14
   28828.1  5316.02
   28838.5  5320.91
   28849.0  5325.80
   28859.4  5330.68
   28869.9  5335.58
   28880.4  5340.47
   28890.8  5345.38
   28901.3  5350.28
   28911.8  5355.19
   28922.2  5360.09
   28932.7  5365.01
   28943.2  5369.93
   28953.7  5374.85
   28964.2  5379.78
   28974.7  5384.71
   28985.2  5389.63
   28995.7  5394.57
   29006.2  5399.51
   29016.7  5404.45
   29027.2  5409.40
   29037.7  5414.35
   29048.2  5419.30
   29058.8  5424.25
   29069.3  5429.21
   29079.8  5434.18
   29090.4  5439.15
   29100.9  5444.12
   29111.4  5449.10
   29122.0  5454.07
   29132.5  5459.05
   29143.1  5464.04
   29153.6  5469.03
   29164.2  5474.02
   29174.8  5479.02
   29185.3  5484.01
   29195.9  5489.01
   29206.5  5494.02
   29217.1  5499.03
   29227.7  5504.05
   29238.3  5509.06
   29248.8  5514.08
   29259.4  5519.10
   29270.0  5524.13
   29280.7  5529.16
   29291.3  5534.19
   29301.9  5539.23
   29312.5  5544.27
   29323.1  5549.31
   29333.7  5554.35
   29344.4  5559.40
   29355.0  5564.46
   29365.6  5569.52
   29376.3  5574.58
   29386.9  5579.63
   29397.6  5584.70
   29408.2  5589.77
   29418.9  5594.85
   29429.5  5599.93
   29440.2  5605.01
   29450.9  5610.08
   29461.5  5615.17
   29472.2  5620.26
   29482.9  5625.36
   29493.6  5630.46
   29504.2  5635.56
   29514.9  5640.67
   29525.6  5645.77
   29536.3  5650.88
   29547.0  5655.99
   29557.7  5661.12
   29568.4  5666.24
   29579.2  5671.37
   29589.9  5676.49
   29600.6  5681.63
   29611.3  5686.76
   29622.0  5691.90
   29632.8  5697.05
   29643.5  5702.20
   29654.3  5707.34
   29665.0  5712.49
   29675.7  5717.65
   29686.5  5722.81
   29697.3  5727.98
   29708.0  5733.15
   29718.8  5738.32
   29729.5  5743.49
   29740.3  5748.66
   29751.1  5753.85
   29761.9  5759.03
   29772.7  5764.22
   29783.4  5769.41
   29794.2  5774.60
   29805.0  5779.80
   29815.8  5785.00
   29826.6  5790.21
   29837.4  5795.42
   29848.2  5800.63
   29859.1  5805.84
   29869.9  5811.06
   29880.7  5816.28
   29891.5  5821.50
   29902.4  5826.73
   29913.2  5831.97
   29924.0  5837.20
   29934.9  5842.43
   29945.7  5847.68
   29956.6  5852.92
   29967.4  5858.17
   29978.3  5863.43
   29989.1  5868.68
   30000.0  5873.93
